player_id,season,entry,position,proj_games,proj_apg,proj_attempts,proj_pass_yards,proj_pass_tds,proj_interceptions,proj_carries,proj_rush_yards,proj_rush_tds,proj_fumbles_lost,proj_ypa,proj_td_per_att,p_pass_300,p_pass_350,p_pass_400,p_rush_100,p_rush_150,p_rush_200,proj_bonus_points,proj_points_base,proj_points,entry_act,name,position_act,games,points,targets,receptions,rec_yards,rec_tds,carries,rush_yards,rush_tds,attempts,completions,pass_yards,pass_tds,interceptions,sacks,fumbles_lost,rec_bonus,rush_bonus,pass_bonus,total_bonus,g100,g150,g200,r100,r150,r200,p300,p350,p400,season_len,pts_1,ppg_w,gshare_w,gshare_1,age,evidence,present_1,gshare_max3,inj_missed_share_1,unexp_missed_share_1,inj_out_wks_1,missed_wks_1,games_1,tgt_1,rec_1,recyds_1,rectd_1,carries_1,rushyds_1,rushtd_1,att_1,passyds_1,passtd_1,ints_1,average_pick,n_train_seasons
00-0000865,2014,veteran,QB,0.0,24.634159673544126,0.0,0.0,0.0,0.0,0.0,0.0,0.0,0.0,7.058045108313308,0.04198415359402675,9.357622968839299e-14,9.357622968839299e-14,9.357622968839299e-14,1.0518631549613466e-10,1.3703895119550464e-11,1.3703895119550464e-11,0.0,0.0,0.0,veteran,,,0.0,0.0,0.0,0.0,0.0,0.0,0.0,0.0,0.0,0.0,0.0,0.0,0.0,0.0,0.0,0.0,0.0,0.0,0.0,0.0,0.0,0.0,0.0,0.0,0.0,0.0,0.0,0.0,0.0,16,0.0,5.160000000000001,0.1517857142857143,0.0,39.73990417522245,0.06562499999999999,0.0,0.1875,0.0,1.0,0.0,16.0,0.0,0.0,0.0,0.0,0.0,0.0,0.0,0.0,0.0,0.0,0.0,0.0,,2
00-0007091,2014,veteran,QB,3.1572852148425405,25.636050713948237,80.94032388610232,563.3509481531138,3.250462128197359,2.168173721040628,4.341980069631426,12.22648588418824,0.13097614221828816,0.624398038555361,6.9600777598302,0.040158748719258244,0.056229852194233244,0.01967121359480242,0.004857618654583814,3.5096936480220457e-07,1.3702671568410335e-11,1.3702671568410335e-11,0.3013700121036822,31.95924836145056,32.260618373554244,veteran,Matt Hasselbeck,QB,4.0,16.939999999999998,0.0,0.0,0.0,0.0,8.0,-11.0,0.0,44.0,30.0,301.0,2.0,0.0,2.0,1.0,0.0,0.0,0.0,0.0,0.0,0.0,0.0,0.0,0.0,0.0,0.0,0.0,0.0,16,3.0,8.372093023255815,0.6061046511627908,0.1875,38.93497604380561,0.40312499999999996,1.0,1.0,0.0,0.8125,0.0,13.0,3.0,0.0,0.0,0.0,0.0,2.0,-2.0,0.0,12.0,130.0,0.0,1.0,,2
00-0010346,2014,veteran,QB,12.360559669723377,42.85869888736242,529.7575049639502,4025.048860777983,33.52294829364601,10.653710034089556,15.187948281930513,3.8656069226813385,0.4583550261938583,2.6973143030372673,7.59790814299438,0.06327979873721135,0.5955205384455432,0.3289094950323491,0.15245421768798492,4.2401310525222055e-10,1.3703684865630064e-11,1.3703684865630064e-11,17.228064224031392,271.52838978088096,288.75645400491237,veteran,Peyton Manning,QB,16.0,328.18,0.0,0.0,0.0,0.0,24.0,-24.0,0.0,597.0,395.0,4727.0,39.0,15.0,17.0,2.0,0.0,0.0,15.5,15.5,0.0,0.0,0.0,0.0,0.0,0.0,7.0,3.0,2.0,16,441.98,24.932132352941174,1.0,1.0,38.4394250513347,0.8500000000000001,1.0,1.0,0.0,0.0,0.0,0.0,16.0,0.0,0.0,0.0,0.0,32.0,-31.0,1.0,659.0,5477.0,55.0,10.0,,2
00-0019596,2014,veteran,QB,12.904793905641217,40.57593574875096,523.6240883661709,3756.0273850041117,23.909098713015535,10.322604509030224,18.432907219528712,28.47643554856881,0.6206214871182085,2.5047607474814337,7.173137119653513,0.04566080752246806,0.44713607244966275,0.21248226147966418,0.08399973406883098,4.115708985688598e-08,1.37029948082483e-11,1.37029948082483e-11,12.051257596556756,226.7941322167694,238.84538981332616,veteran,Tom Brady,QB,16.0,286.06,0.0,0.0,0.0,0.0,36.0,57.0,0.0,582.0,373.0,4109.0,33.0,9.0,21.0,3.0,0.0,0.0,8.0,8.0,0.0,0.0,0.0,0.0,0.0,0.0,5.0,2.0,0.0,16,267.52,19.465,1.0,1.0,37.07871321013005,1.0,1.0,1.0,0.0,0.0,0.0,0.0,16.0,0.0,0.0,0.0,0.0,32.0,18.0,0.0,628.0,4343.0,25.0,11.0,,2
00-0020245,2014,veteran,QB,5.688151724731164,28.22919613631118,160.57195069053276,1159.521730173575,6.538640580970007,4.314296582913788,28.721435743820596,185.71640558080992,0.8841364530560682,1.2621277658580983,7.221197258843165,0.040720938824314365,0.1080222281791485,0.039091292322799745,0.010722476378372694,0.006943767327848817,1.3701178666733701e-11,1.3701178666733701e-11,1.1094619736832472,85.25904210969665,86.3685040833799,veteran,Mike Vick,QB,9.0,43.46,0.0,0.0,0.0,0.0,26.0,153.0,0.0,121.0,64.0,604.0,3.0,2.0,19.0,2.0,0.0,0.0,0.0,0.0,0.0,0.0,0.0,0.0,0.0,0.0,0.0,0.0,0.0,16,105.5,16.000795454545454,0.5845170454545454,0.4375,34.182067077344286,0.55,1.0,0.8125,0.125,0.4375,2.0,9.0,7.0,0.0,0.0,-2.0,0.0,36.0,306.0,2.0,141.0,1215.0,5.0,3.0,,2
00-0020531,2014,veteran,QB,13.039298655714475,42.39905493078459,552.8539399625437,4142.652221829319,30.698022785240635,12.937335605527275,20.359084570100762,39.39122337166255,0.7336906784490778,2.4800080131487663,7.4932128042896595,0.05552646108901829,0.563463794976298,0.30064125676610487,0.13429796368360558,1.3119489450304666e-07,1.3702819970608896e-11,1.3702819970608896e-11,16.729703633146524,266.004759184644,282.73446281779053,veteran,Drew Brees,QB,16.0,317.98,1.0,1.0,1.0,0.0,27.0,68.0,1.0,659.0,456.0,4952.0,33.0,17.0,29.0,3.0,0.0,0.0,14.5,14.5,0.0,0.0,0.0,0.0,0.0,0.0,8.0,3.0,1.0,16,379.68,23.960812500000003,1.0,1.0,35.62765229295003,1.0,1.0,1.0,0.0,0.0,0.0,0.0,16.0,0.0,0.0,0.0,0.0,35.0,52.0,3.0,650.0,5162.0,39.0,12.0,,2
00-0021206,2014,veteran,QB,4.758332807766999,28.26011007838696,134.4710089370955,980.6177032309215,6.3787528724201445,2.8541542989730533,9.793211426111434,45.31014110087828,0.3167489611688725,0.9627796969988361,7.292409798826206,0.047435896576072216,0.11375060521258042,0.04132530588530577,0.011438361252659977,1.812078355194642e-05,1.3702076758255924e-11,1.3702076758255924e-11,0.9451638590422788,63.53735950407473,64.48252336311701,veteran,Josh McCown,QB,11.0,128.94,0.0,0.0,0.0,0.0,25.0,127.0,3.0,327.0,184.0,2206.0,11.0,14.0,36.0,4.0,0.0,0.0,2.0,2.0,0.0,0.0,0.0,0.0,0.0,0.0,2.0,0.0,0.0,16,142.06,16.89422680412371,0.47100515463917525,0.5,35.162217659137575,0.30312500000000003,1.0,0.5,0.0,0.5,0.0,8.0,8.0,0.0,0.0,0.0,0.0,13.0,69.0,1.0,224.0,1829.0,13.0,1.0,,2
00-0021429,2014,veteran,QB,12.617260527851277,36.47108179727046,460.16514076873574,3317.5974001663544,19.142725866419458,14.684994887518632,13.945996899705152,18.02754118465864,0.41869735267867125,2.6459367004992242,7.209580009959235,0.04159968709155216,0.31991414791292977,0.1358758602672819,0.04748749454820641,9.915291167634433e-09,1.370320946858115e-11,1.370320946858115e-11,7.806336150188527,178.92787453083423,186.73421068102274,veteran,Carson Palmer,QB,6.0,105.53999999999999,0.0,0.0,0.0,0.0,8.0,25.0,0.0,224.0,141.0,1626.0,11.0,3.0,9.0,1.0,0.0,0.0,2.0,2.0,0.0,0.0,0.0,0.0,0.0,0.0,2.0,0.0,0.0,16,229.26,14.851824324324323,0.9429898648648649,1.0,34.680355920602324,0.925,1.0,1.0,0.0,0.0,0.0,0.0,16.0,0.0,0.0,0.0,0.0,27.0,3.0,0.0,572.0,4274.0,24.0,22.0,,2
00-0021678,2014,veteran,QB,12.4361057371691,38.89479354942573,483.699765206021,3482.0006819634486,23.733308537543696,11.546389004433024,14.438976402345931,31.054997148022302,0.43225022210267205,2.420608480272754,7.198681770044624,0.049066198176538345,0.39674746105670483,0.18004204570952298,0.06775147547108536,6.417919195281773e-08,1.3702927803601585e-11,1.3702927803601585e-11,9.97765607737528,211.97826750671945,221.95592358409473,veteran,Tony Romo,QB,15.0,267.3,0.0,0.0,0.0,0.0,26.0,61.0,0.0,435.0,304.0,3705.0,34.0,9.0,29.0,3.0,0.0,0.0,1.0,1.0,0.0,0.0,0.0,0.0,0.0,0.0,1.0,0.0,0.0,16,269.92,18.14084142394822,0.966626213592233,0.9375,34.362765229295,0.9656250000000001,1.0,1.0,0.0625,0.0,1.0,1.0,15.0,0.0,0.0,0.0,0.0,20.0,38.0,0.0,535.0,3828.0,31.0,10.0,,2
00-0022177,2014,veteran,QB,0.0,23.89509647456962,0.0,0.0,0.0,0.0,0.0,0.0,0.0,0.0,6.9859366803465885,0.042191253989721705,9.357622968839299e-14,9.357622968839299e-14,9.357622968839299e-14,1.0518631549613466e-10,1.3703895119550464e-11,1.3703895119550464e-11,0.0,0.0,0.0,veteran,,,0.0,0.0,0.0,0.0,0.0,0.0,0.0,0.0,0.0,0.0,0.0,0.0,0.0,0.0,0.0,0.0,0.0,0.0,0.0,0.0,0.0,0.0,0.0,0.0,0.0,0.0,0.0,0.0,0.0,16,0.0,8.99,0.125,0.0,34.63107460643395,0.0375,0.0,0.125,0.0,1.0,0.0,16.0,0.0,0.0,0.0,0.0,0.0,0.0,0.0,0.0,0.0,0.0,0.0,0.0,,2
00-0022787,2014,veteran,QB,8.668287474858674,32.21139294080167,279.21761397650226,1958.3177801474192,10.911102436896607,7.980969190601038,11.387783418639192,21.7805661975182,0.352572377292145,1.6434659982082438,7.013589695355762,0.03907741449941205,0.1731689816854962,0.06560794794678852,0.019673458738275484,6.56505935834195e-08,1.3702924384989992e-11,1.3702924384989992e-11,2.6952123065661437,107.02174145936932,109.71695376593547,veteran,Matt Schaub,QB,2.0,-3.72,0.0,0.0,0.0,0.0,0.0,0.0,0.0,10.0,5.0,57.0,0.0,2.0,3.0,1.0,0.0,0.0,0.0,0.0,0.0,0.0,0.0,0.0,0.0,0.0,0.0,0.0,0.0,16,108.3,12.9635593220339,0.777542372881356,0.625,33.1854893908282,0.7375,1.0,1.0,0.0625,0.3125,1.0,6.0,10.0,0.0,0.0,0.0,0.0,5.0,24.0,0.0,358.0,2310.0,10.0,14.0,,2
00-0022803,2014,veteran,QB,13.222163256130806,34.3650670572388,454.380526938694,3240.717014847993,18.65183869506598,15.787890447925696,18.300065554998454,35.01043346647325,0.5308489800371717,2.5728072618207767,7.1321652727543885,0.04104893935646702,0.2443595551933401,0.09767131343954927,0.03167359676033008,7.966318778613761e-08,1.3702895208228895e-11,1.3702895208228895e-11,6.005688998071205,174.20077718156108,180.2064661796323,veteran,Eli Manning,QB,16.0,281.0,0.0,0.0,0.0,0.0,12.0,31.0,1.0,601.0,379.0,4410.0,30.0,14.0,28.0,4.0,0.0,0.0,11.5,11.5,0.0,0.0,0.0,0.0,0.0,0.0,5.0,3.0,1.0,16,178.32,13.424999999999999,1.0,1.0,33.659137577002056,1.0,1.0,1.0,0.0,0.0,0.0,0.0,16.0,0.0,0.0,0.0,0.0,18.0,36.0,0.0,551.0,3818.0,18.0,27.0,,2
00-0022924,2014,veteran,QB,12.839215071525631,35.05050280241288,450.0209438452908,3231.1569984900543,21.05260931947817,10.90837249251362,25.10686587007706,83.68300145034021,0.7484267765700607,2.897370215408044,7.180014714161545,0.046781398971323614,0.27131505430944247,0.11076810003894509,0.036913738500957124,3.2368694928571463e-06,1.3702336518417354e-11,1.3702336518417354e-11,6.564663938513026,198.70409260612593,205.26875654463896,veteran,Ben Roethlisberger,QB,16.0,326.68,0.0,0.0,-6.0,0.0,33.0,27.0,0.0,608.0,408.0,4952.0,32.0,9.0,33.0,5.0,0.0,0.0,20.5,20.5,0.0,0.0,0.0,0.0,0.0,0.0,9.0,5.0,2.0,16,273.84000000000003,16.949096989966556,0.9416806020066889,1.0,32.50102669404517,0.9343750000000001,1.0,1.0,0.0,0.0,0.0,0.0,16.0,0.0,0.0,5.0,0.0,27.0,99.0,1.0,584.0,4261.0,28.0,14.0,,2
00-0022942,2014,veteran,QB,13.308539490904343,34.7166630765768,462.02808154704303,3411.6483335448024,22.91174921371076,11.7741820083499,22.555091134832587,52.03135237032942,0.6361706391300418,2.8426741523577435,7.384071379647155,0.04958951658737634,0.29120221565687776,0.12080080195767785,0.04105621332046064,3.6489671256492595e-07,1.370266569949731e-11,1.370266569949731e-11,7.3798008815136695,207.89937694703303,215.2791778285467,veteran,Philip Rivers,QB,16.0,274.14,0.0,0.0,0.0,0.0,37.0,102.0,0.0,570.0,379.0,4286.0,31.0,18.0,36.0,2.0,0.0,0.0,8.5,8.5,0.0,0.0,0.0,0.0,0.0,0.0,4.0,3.0,0.0,16,304.42,16.9195,1.0,1.0,32.73100616016427,1.0,1.0,1.0,0.0,0.0,0.0,0.0,16.0,0.0,0.0,-9.0,0.0,28.0,72.0,0.0,544.0,4478.0,32.0,11.0,,2
00-0023436,2014,veteran,QB,12.040999181562462,29.91160292257981,360.16558631000487,2492.5161023533756,16.16830249240746,7.156449900137506,43.90117701234288,210.55640924358175,1.190396706245375,2.4276714647054525,6.920472685605214,0.044891303075499656,0.11616014420975068,0.042270378566456324,0.011743485707338892,0.00032499592362298925,1.3701641380498121e-11,1.3701641380498121e-11,2.4488704717536467,173.4036324959094,175.85250296766304,veteran,Alex Smith,QB,15.0,221.0,0.0,0.0,0.0,0.0,49.0,254.0,1.0,464.0,303.0,3265.0,18.0,6.0,45.0,1.0,0.0,0.0,1.0,1.0,0.0,0.0,0.0,0.0,0.0,0.0,1.0,0.0,0.0,16,253.72,15.267326007326005,0.8798076923076923,0.9375,30.31895961670089,0.853125,1.0,1.0,0.0,0.0625,0.0,1.0,15.0,1.0,1.0,-4.0,0.0,76.0,431.0,1.0,508.0,3313.0,23.0,7.0,,2
00-0023459,2014,veteran,QB,8.641312911052474,34.27061362827049,296.14309601566464,2263.35509918344,16.920553782251865,6.184743201428656,25.2379488209399,103.92572772911407,0.7549095311463706,1.6790136520533672,7.642775163881311,0.057136411450756375,0.3154271576243689,0.1334722646866276,0.04644550771428299,5.409688582486991e-05,1.3701911815217521e-11,1.3701911815217521e-11,5.258935975307972,157.41093534917061,162.66987132447858,veteran,Aaron Rodgers,QB,16.0,367.14,0.0,0.0,0.0,0.0,43.0,269.0,2.0,520.0,341.0,4381.0,38.0,5.0,28.0,2.0,0.0,0.0,13.0,13.0,0.0,0.0,0.0,0.0,0.0,0.0,8.0,2.0,1.0,16,176.94,22.04525,0.8078124999999999,0.5625,30.748802190280628,0.75,1.0,1.0,0.4375,0.0,7.0,7.0,9.0,0.0,0.0,0.0,0.0,30.0,120.0,0.0,290.0,2536.0,17.0,6.0,,2
00-0023460,2014,veteran,QB,5.96709837275148,28.57990477029039,170.53910324819205,1160.5525279766246,6.890926515375516,4.486815856804426,10.665966610683038,55.435187935684674,0.32843155118789136,1.219929925691356,6.805198959488067,0.04040672422996671,0.08616364875303903,0.030728068391430656,0.008113205493172517,1.6163879057581332e-05,1.3702093992692044e-11,1.3702093992692044e-11,0.8861041209438466,70.0864237162713,70.97252783721514,veteran,Jason Campbell,QB,4.0,1.06,0.0,0.0,0.0,0.0,1.0,1.0,0.0,19.0,11.0,74.0,0.0,0.0,1.0,1.0,0.0,0.0,0.0,0.0,0.0,0.0,0.0,0.0,0.0,0.0,0.0,0.0,0.0,16,117.8,11.174149659863948,0.48852040816326536,0.5625,32.668035592060235,0.459375,1.0,0.5625,0.0625,0.375,1.0,7.0,9.0,0.0,0.0,0.0,0.0,14.0,107.0,0.0,317.0,2015.0,11.0,8.0,,2
00-0023541,2014,veteran,QB,1.2848370343893492,22.675948595195024,29.1348985450157,206.80908521750754,1.2629392452797894,0.8168955649022361,1.8462204856335793,6.434531874848087,0.05721292064620129,0.26248024261459985,7.098328655511579,0.04334798843827959,0.03328571972502732,0.011485954076840436,0.0026277563697077936,1.0265500397177143e-06,1.3702509708667268e-11,1.3702509708667268e-11,0.07165689059228311,12.152099486147806,12.22375637674009,veteran,Kyle Orton,QB,12.0,180.62,0.0,0.0,0.0,0.0,15.0,14.0,1.0,447.0,287.0,3018.0,18.0,10.0,33.0,3.0,0.0,0.0,4.5,4.5,0.0,0.0,0.0,0.0,0.0,0.0,3.0,1.0,0.0,16,23.220000000000002,10.46618181818182,0.33295454545454545,0.125,31.797399041752225,0.171875,1.0,0.5625,0.0,0.875,0.0,14.0,2.0,0.0,0.0,0.0,0.0,1.0,8.0,0.0,51.0,398.0,2.0,2.0,,2
00-0023662,2014,veteran,QB,6.6799937501949085,28.049030507050823,187.36734848612582,1299.3036346505312,7.506933826841682,5.909149924688008,13.115158149498093,51.19375629031944,0.41654587748957844,1.4615165949534121,6.934525386352159,0.040065325615671804,0.08619551515317278,0.03074007856144894,0.008116868291412886,6.6955124131693665e-06,1.3702226906129219e-11,1.3702226906129219e-11,0.9922867867415126,74.87719854807456,75.86948533481608,veteran,Matt Cassel,QB,3.0,22.8,0.0,0.0,0.0,0.0,9.0,18.0,0.0,71.0,41.0,425.0,3.0,4.0,6.0,0.0,0.0,0.0,0.0,0.0,0.0,0.0,0.0,0.0,0.0,0.0,0.0,0.0,0.0,16,110.48,11.004888888888889,0.5625,0.5625,32.29295003422313,0.5625,1.0,0.5625,0.0,0.4375,0.0,7.0,9.0,0.0,0.0,0.0,0.0,18.0,57.0,1.0,254.0,1807.0,11.0,9.0,,2
00-0023682,2014,veteran,QB,9.922457605171726,31.863438174488287,316.1636144413704,2189.866742993882,13.621152753563543,9.856613488220187,27.938925334183292,121.2287257260525,0.914049610619214,2.1031578535323896,6.9263717991811244,0.04308260701545547,0.15605009595093125,0.05839640969859241,0.017145581898539347,5.8284751397890746e-05,1.3701900570078364e-11,1.3701900570078364e-11,2.758385258108013,135.76690828682482,138.52529354493282,veteran,Ryan Fitzpatrick,QB,12.0,182.22,0.0,0.0,0.0,0.0,50.0,184.0,2.0,312.0,197.0,2483.0,17.0,8.0,21.0,1.0,0.0,0.0,2.5,2.5,0.0,0.0,0.0,0.0,0.0,0.0,1.0,1.0,0.0,16,172.66,14.6577358490566,0.857311320754717,0.6875,31.770020533880903,0.8281250000000001,1.0,1.0,0.0,0.3125,0.0,5.0,11.0,1.0,1.0,0.0,0.0,43.0,225.0,3.0,350.0,2454.0,14.0,12.0,,2
00-0024225,2014,veteran,QB,0.0,12.935490465560974,0.0,0.0,0.0,0.0,0.0,0.0,0.0,0.0,6.961626993159577,0.0431264472692531,9.357622968839299e-14,9.357622968839299e-14,9.357622968839299e-14,1.0518631549613466e-10,1.3703895119550464e-11,1.3703895119550464e-11,0.0,0.0,0.0,veteran,,,0.0,0.0,0.0,0.0,0.0,0.0,0.0,0.0,0.0,0.0,0.0,0.0,0.0,0.0,0.0,0.0,0.0,0.0,0.0,0.0,0.0,0.0,0.0,0.0,0.0,0.0,0.0,0.0,0.0,16,0.0,1.8966666666666667,0.125,0.0,31.310061601642712,0.056249999999999994,0.0,0.125,0.0,1.0,0.0,16.0,0.0,0.0,0.0,0.0,0.0,0.0,0.0,0.0,0.0,0.0,0.0,0.0,,2
00-0024226,2014,veteran,QB,9.308679259055197,30.97878000451902,288.3715268989001,2048.433316522389,13.259802251000623,8.470588512049023,21.49028155346522,101.6724651671291,0.6054602495645685,2.006569257843596,7.103452059053484,0.045981662591984565,0.15401705535048452,0.057551919670977544,0.01685392960696566,3.436359720166506e-05,1.3701980249907814e-11,1.3701980249907814e-11,2.5513894402046984,127.82223413921312,130.37362357941782,veteran,Jay Cutler,QB,15.0,261.08,0.0,0.0,0.0,0.0,39.0,191.0,2.0,561.0,370.0,3812.0,28.0,18.0,38.0,6.0,0.0,0.0,5.5,5.5,0.0,0.0,0.0,0.0,0.0,0.0,4.0,1.0,0.0,16,172.14000000000001,14.199336099585064,0.7730809128630706,0.6875,31.342915811088297,0.753125,1.0,0.9375,0.3125,0.0,5.0,5.0,11.0,0.0,0.0,0.0,0.0,23.0,118.0,0.0,355.0,2621.0,19.0,12.0,,2
00-0024264,2014,veteran,QB,6.729412584823687,21.69988124586044,146.02745394507275,1020.7166017767795,5.870479002183819,3.983749169704317,12.386998678552645,38.57894900644424,0.3709024244647177,1.4567799608489576,6.989895216283886,0.040201200826195056,0.024489373928602735,0.00841009700645337,0.0018433896173016562,1.8399224307450407e-06,1.3702421708035996e-11,1.3702421708035996e-11,0.2745138605605144,59.51283126613264,59.78734512669316,veteran,Kellen Clemens,QB,1.0,0.4,0.0,0.0,0.0,0.0,0.0,0.0,0.0,3.0,1.0,10.0,0.0,0.0,1.0,0.0,0.0,0.0,0.0,0.0,0.0,0.0,0.0,0.0,0.0,0.0,0.0,0.0,0.0,16,85.32000000000001,8.026717557251908,0.5491412213740459,0.625,31.238877481177276,0.409375,1.0,0.625,0.0,0.375,0.0,6.0,10.0,0.0,0.0,0.0,0.0,23.0,64.0,0.0,242.0,1673.0,8.0,7.0,,2
00-0025409,2014,veteran,QB,2.657552558982776,15.932084557809112,42.340352086535574,291.7913654431507,1.6517509338317151,1.2122105855602934,6.2758391261291235,22.24773473386832,0.19134013566861754,0.5323968742317644,6.891566816609957,0.03901127063033988,0.0044901429208696435,0.0015310263148677304,0.00026784702970801555,1.0011437180440052e-05,1.3702166237436788e-11,1.3702166237436788e-11,0.01948620632735629,18.16225772086731,18.181743927194667,veteran,,,0.0,0.0,0.0,0.0,0.0,0.0,0.0,0.0,0.0,0.0,0.0,0.0,0.0,0.0,0.0,0.0,0.0,0.0,0.0,0.0,0.0,0.0,0.0,0.0,0.0,0.0,0.0,0.0,0.0,16,0.0,4.424,0.625,0.0,29.845311430527037,0.1875,0.0,0.625,0.125,0.875,2.0,16.0,0.0,0.0,0.0,0.0,0.0,0.0,0.0,0.0,0.0,0.0,0.0,0.0,,2
00-0025423,2014,veteran,QB,1.7721980757847553,25.83832514759252,45.79063010806432,321.6190470343499,1.9783121302558757,1.1697076209878292,4.572232183728004,20.95023179960417,0.1441287256513079,0.37538374243672684,7.023686860725435,0.04320342667456479,0.061217344590625916,0.021482953205781707,0.005373926159438291,4.987489581123382e-05,1.370192406999547e-11,1.370192406999547e-11,0.18473304426605722,20.647623209416654,20.83235625368271,veteran,,,0.0,0.0,0.0,0.0,0.0,0.0,0.0,0.0,0.0,0.0,0.0,0.0,0.0,0.0,0.0,0.0,0.0,0.0,0.0,0.0,0.0,0.0,0.0,0.0,0.0,0.0,0.0,0.0,0.0,16,0.0,12.915238095238097,0.45535714285714285,0.0,30.02053388090349,0.19687499999999997,0.0,0.5625,0.0,1.0,0.0,16.0,0.0,0.0,0.0,0.0,0.0,0.0,0.0,0.0,0.0,0.0,0.0,0.0,,2
00-0026143,2014,veteran,QB,13.629445763413761,38.015733378675286,518.1333762410529,3676.182132443555,22.864514086600312,13.035949647882436,26.12418240181952,87.2820440109709,0.791549392884792,2.818186668813249,7.0950498481944395,0.04412862620909983,0.35016094687309085,0.1525636278532432,0.05489473158115139,2.9934951985239762e-06,1.370234830639681e-11,1.370234830639681e-11,9.387946504714543,220.27456976915792,229.66251627387246,veteran,Matt Ryan,QB,16.0,296.76,0.0,0.0,0.0,0.0,29.0,145.0,0.0,628.0,415.0,4694.0,28.0,14.0,31.0,2.0,0.0,0.0,12.5,12.5,0.0,0.0,0.0,0.0,0.0,0.0,6.0,3.0,1.0,16,260.1,17.558437500000004,1.0,1.0,29.29226557152635,1.0,1.0,1.0,0.0,0.0,0.0,0.0,16.0,0.0,0.0,0.0,0.0,17.0,55.0,0.0,651.0,4515.0,26.0,17.0,,2
00-0026158,2014,veteran,QB,13.598470030687846,34.977780706908284,475.64430268286384,3231.6565633221185,17.958028232316522,13.453530749943544,25.587904710589125,77.80430155197301,0.8588168691577932,2.80515169225869,6.7942715703604835,0.03775516311458912,0.21526540654262283,0.08414460506883745,0.026464359608938646,1.8241061265000402e-06,1.3702423010026815e-11,1.3702423010026815e-11,5.36341142267432,181.51434194789044,186.87775337056476,veteran,Joe Flacco,QB,16.0,267.44,0.0,0.0,0.0,0.0,39.0,70.0,2.0,554.0,344.0,3986.0,27.0,12.0,19.0,0.0,0.0,0.0,5.0,5.0,0.0,0.0,0.0,0.0,0.0,0.0,5.0,0.0,0.0,16,212.08,13.826125000000001,1.0,1.0,29.623545516769337,1.0,1.0,1.0,0.0,0.0,0.0,0.0,16.0,0.0,0.0,0.0,0.0,27.0,131.0,1.0,614.0,3912.0,19.0,22.0,,2
00-0026197,2014,veteran,QB,11.53828056449807,30.21171619271089,348.59125776648773,2373.4017972488427,12.402278024216734,9.921018726553834,23.67690140561535,80.07348086933725,0.710373138561405,2.174739592594435,6.808552263920294,0.0355782818642133,0.11274685947072288,0.04093255798017875,0.011311954857738811,4.282014395938968e-06,1.3702294319583968e-11,1.3702294319583968e-11,2.2704323300359563,132.62325426682625,134.8936865968622,veteran,Chad Henne,QB,3.0,30.18,0.0,0.0,0.0,0.0,4.0,25.0,0.0,78.0,42.0,492.0,3.0,1.0,16.0,1.0,0.0,0.0,0.0,0.0,0.0,0.0,0.0,0.0,0.0,0.0,0.0,0.0,0.0,16,164.34,11.409113924050635,0.8235759493670887,0.9375,29.166324435318277,0.740625,1.0,0.9375,0.0,0.0625,0.0,1.0,15.0,0.0,0.0,0.0,0.0,27.0,77.0,0.0,503.0,3241.0,13.0,14.0,,2
00-0026349,2014,veteran,QB,4.464139558463378,22.544157889321504,100.64026704596438,711.773413929581,4.424603309337839,2.6302294202856626,7.766488727463652,20.84533899228064,0.23255104592703102,1.0420385008817359,7.0724515625986974,0.04396454261510491,0.0317001959104384,0.01092907963021752,0.002483195353983275,7.626785320641735e-07,1.3702554517897259e-11,1.3702554517897259e-11,0.23687156978682175,42.30465412699006,42.54152569677688,veteran,Matt Flynn,QB,7.0,-2.3600000000000003,0.0,0.0,0.0,0.0,10.0,-10.0,0.0,16.0,8.0,66.0,0.0,1.0,2.0,1.0,0.0,0.0,0.0,0.0,0.0,0.0,0.0,0.0,0.0,0.0,0.0,0.0,0.0,16,72.18,9.165000000000001,0.38341346153846156,0.4375,29.19917864476386,0.325,1.0,0.4375,0.0,0.5625,0.0,9.0,7.0,0.0,0.0,0.0,0.0,20.0,65.0,0.0,200.0,1392.0,8.0,5.0,,2
00-0026498,2014,veteran,QB,13.884908848588383,39.377986512639964,546.7597533689486,3878.050585277825,23.086163531033787,14.643774805489477,32.47062332197873,85.98962374468721,1.1611681985499163,2.9116275863756007,7.0927872093411946,0.042223597089552874,0.39359428567024596,0.17810968945152303,0.06682038466565661,2.5815589324941693e-06,1.3702370633411843e-11,1.3702370633411843e-11,11.030201730480664,227.92184431728623,238.95204604776688,veteran,Matthew Stafford,QB,16.0,257.08,0.0,0.0,0.0,0.0,43.0,93.0,2.0,602.0,363.0,4257.0,22.0,12.0,45.0,3.0,0.0,0.0,5.5,5.5,0.0,0.0,0.0,0.0,0.0,0.0,4.0,1.0,0.0,16,294.4,19.058687499999998,1.0,1.0,26.56536618754278,1.0,1.0,1.0,0.0,0.0,0.0,0.0,16.0,0.0,0.0,0.0,0.0,37.0,69.0,2.0,634.0,4650.0,29.0,19.0,,2
00-0026544,2014,veteran,QB,2.819903105609447,11.19715730237741,31.574898650971555,222.03405871899793,1.357760167196323,0.8303489323885039,5.445962591873358,19.67235039187479,0.16348224283800428,0.561772236178912,7.031980091950857,0.04300125179196878,0.000774516602086509,0.00026513436387286217,3.6969959407286944e-05,4.3836495559075375e-06,1.3702290781907698e-11,1.3702290781907698e-11,0.0035264066046304244,14.476289176625881,14.479815583230511,veteran,Chase Daniel,QB,2.0,7.780000000000001,0.0,0.0,0.0,0.0,4.0,15.0,0.0,28.0,16.0,157.0,0.0,0.0,4.0,0.0,0.0,0.0,0.0,0.0,0.0,0.0,0.0,0.0,0.0,0.0,0.0,0.0,0.0,16,17.119999999999997,2.907142857142857,0.275,0.3125,27.901437371663246,0.21875,1.0,0.3125,0.0,0.6875,0.0,11.0,5.0,0.0,0.0,0.0,0.0,14.0,52.0,0.0,38.0,248.0,1.0,1.0,,2
00-0026625,2014,veteran,QB,1.0914550739634774,25.281140393584018,27.5932289581603,191.91674028109946,1.2164781299280065,0.759350498240859,1.3966675146100669,4.3768061038175485,0.04288006115116345,0.21976458036395313,6.955211387985923,0.044086110102320976,0.05223391712462055,0.01822819782914077,0.004451783230338099,4.0478859134984444e-07,1.3702650052661421e-11,1.3702650052661421e-11,0.09657214704417685,11.279312951035116,11.375885098079292,veteran,Brian Hoyer,QB,14.0,159.94,1.0,0.0,0.0,0.0,24.0,39.0,0.0,438.0,242.0,3326.0,12.0,13.0,24.0,1.0,0.0,0.0,3.0,3.0,0.0,0.0,0.0,0.0,0.0,0.0,3.0,0.0,0.0,16,41.199999999999996,10.543921568627452,0.16544117647058826,0.1875,28.83504449007529,0.159375,1.0,0.1875,0.0625,0.75,1.0,13.0,3.0,0.0,0.0,0.0,0.0,6.0,16.0,0.0,96.0,615.0,5.0,3.0,,2
00-0026898,2014,veteran,QB,5.291829989930942,25.75132366253678,136.27162683783044,927.8868443574997,5.537463762208121,4.205129384250159,13.084776806450678,32.33629953134226,0.4362209285343405,1.2210614300215397,6.809097872308578,0.04063548583593238,0.051499812290760054,0.017963914771796017,0.0043779949828734715,2.4335585537081557e-06,1.3702379537013105e-11,1.3702379537013105e-11,0.46146931406918673,54.263902718929344,54.72537203299853,veteran,Mark Sanchez,QB,9.0,144.92,0.0,0.0,0.0,0.0,34.0,87.0,1.0,309.0,198.0,2418.0,14.0,11.0,23.0,3.0,0.0,0.0,5.5,5.5,0.0,0.0,0.0,0.0,0.0,0.0,4.0,1.0,0.0,16,0.0,10.521739130434781,0.9592391304347826,0.0,27.805612594113622,0.43125,0.0,1.0,0.125,0.875,2.0,16.0,0.0,0.0,0.0,0.0,0.0,0.0,0.0,0.0,0.0,0.0,0.0,0.0,,2
00-0026993,2014,veteran,QB,6.29637364443225,30.887842400133934,194.48139682158026,1327.6881659868343,7.644298155105363,5.703189941401389,17.94894082783968,66.94572279509461,0.549615507291664,1.304627135397259,6.826813194913818,0.03930606361346911,0.12666359158059812,0.04642778186866631,0.01310138631589592,3.0292251735142684e-05,1.370199926785886e-11,1.370199926785886e-11,1.401184471575464,79.66135042955696,81.06253490113242,veteran,,,0.0,0.0,0.0,0.0,0.0,0.0,0.0,0.0,0.0,0.0,0.0,0.0,0.0,0.0,0.0,0.0,0.0,0.0,0.0,0.0,0.0,0.0,0.0,0.0,0.0,0.0,0.0,0.0,0.0,16,30.439999999999998,13.486918918918919,0.8064189189189189,0.25,26.633812457221083,0.578125,1.0,1.0,0.0625,0.6875,1.0,12.0,4.0,0.0,0.0,0.0,0.0,5.0,20.0,0.0,147.0,761.0,2.0,4.0,,2
00-0027253,2014,veteran,QB,2.914309946457283,29.03277457677924,84.61050372235988,593.590447196055,3.3855829045178867,2.1143649597997913,5.520104548890131,14.251512376199305,0.1749287199608849,0.6377080043400377,7.015564511279323,0.040013742450078146,0.10760150373298852,0.038927918095332574,0.010670424420972413,9.274654478923471e-07,1.3702525016456872e-11,1.3702525016456872e-11,0.5459527120404299,34.25652713501933,34.802479847059764,veteran,,,0.0,0.0,0.0,0.0,0.0,0.0,0.0,0.0,0.0,0.0,0.0,0.0,0.0,0.0,0.0,0.0,0.0,0.0,0.0,0.0,0.0,0.0,0.0,0.0,0.0,0.0,0.0,0.0,0.0,16,58.879999999999995,11.64655737704918,0.2879098360655738,0.3125,26.784394250513348,0.190625,1.0,0.3125,0.0625,0.625,1.0,11.0,5.0,0.0,0.0,0.0,0.0,24.0,52.0,1.0,157.0,1092.0,4.0,3.0,,2
00-0027754,2014,veteran,QB,2.1576033802012398,24.692408949111133,53.276425013913524,366.09368184995276,2.0739474232175676,1.6769674356391813,4.936502438793929,18.384831571687023,0.15071577191311472,0.44897637335533824,6.871588732809019,0.038928051622757,0.04359725950645643,0.015134796625666464,0.0035991717389037467,1.0856602357920034e-05,1.3702154015161516e-11,1.3702154015161516e-11,0.15860252158092078,21.43042713752673,21.589029659107652,veteran,,,0.0,0.0,0.0,0.0,0.0,0.0,0.0,0.0,0.0,0.0,0.0,0.0,0.0,0.0,0.0,0.0,0.0,0.0,0.0,0.0,0.0,0.0,0.0,0.0,0.0,0.0,0.0,0.0,0.0,16,0.0,7.767272727272728,0.46022727272727276,0.0,26.458590006844627,0.20625,0.0,0.5,0.0,1.0,0.0,16.0,0.0,0.0,0.0,0.0,0.0,0.0,0.0,0.0,0.0,0.0,0.0,0.0,,2
00-0027854,2014,veteran,QB,7.385530929966174,33.150371105847356,244.83309114209263,1661.6498799436215,10.315108085573195,5.539043341435089,15.649364297285992,43.990191525185935,0.46222467551219365,1.5160473454555339,6.7868680340242795,0.04213118429970181,0.17004243969414234,0.06427725597512661,0.01920204822078705,2.174790434898502e-06,1.3702396491344572e-11,1.3702396491344572e-11,2.2515868953573426,100.78861337184816,103.0402002672055,veteran,,,0.0,0.0,0.0,0.0,0.0,0.0,0.0,0.0,0.0,0.0,0.0,0.0,0.0,0.0,0.0,0.0,0.0,0.0,0.0,0.0,0.0,0.0,0.0,0.0,0.0,0.0,0.0,0.0,0.0,16,121.08,14.823842364532021,0.73121921182266,0.4375,26.8145106091718,0.634375,1.0,1.0,0.0,0.5625,0.0,9.0,7.0,0.0,0.0,0.0,0.0,15.0,31.0,0.0,262.0,1687.0,14.0,4.0,,2
00-0027939,2014,veteran,QB,14.002931032977923,34.71896989292304,486.16734094663826,3517.402937749649,21.629395779575315,13.189131316483895,76.54287554127443,394.24210698906705,3.3122732150265706,2.6905950247803956,7.234963440573273,0.04448961079421696,0.269337734499465,0.10978811225245688,0.03651504236502984,0.0033428249216029505,1.3701289448885269e-11,1.3701289448885269e-11,7.146995354254104,254.75209793482477,261.8990932890789,veteran,Cam Newton,QB,14.0,250.98,0.0,0.0,0.0,0.0,103.0,539.0,5.0,448.0,262.0,3127.0,18.0,12.0,38.0,5.0,0.0,1.0,1.0,2.0,0.0,0.0,0.0,1.0,0.0,0.0,1.0,0.0,0.0,16,298.66,19.981375000000003,1.0,1.0,25.308692676249144,1.0,1.0,1.0,0.0,0.0,0.0,0.0,16.0,0.0,0.0,0.0,0.0,111.0,585.0,6.0,473.0,3379.0,24.0,13.0,,2
00-0027946,2014,veteran,QB,5.988469698846556,27.37128858219028,163.91213229283122,1147.7188718422988,6.876424027092134,4.360688099095218,20.892067731974937,124.87164718403417,0.7077134074646616,1.2490454305420964,7.002037346399006,0.041951891729449964,0.08019717870172811,0.02848851641469755,0.00743469662659984,0.0007652211879566339,1.3701512176110632e-11,1.3701512176110632e-11,0.8297897156812369,78.92842908597724,79.75821880165849,veteran,Jake Locker,QB,7.0,63.92,0.0,0.0,0.0,0.0,22.0,142.0,1.0,146.0,86.0,993.0,5.0,7.0,14.0,1.0,0.0,0.0,0.0,0.0,0.0,0.0,0.0,0.0,0.0,0.0,0.0,0.0,0.0,16,100.74000000000001,13.100126582278483,0.5300632911392404,0.4375,26.21218343600274,0.49375,1.0,0.6875,0.1875,0.375,3.0,9.0,7.0,0.0,0.0,0.0,0.0,24.0,155.0,2.0,183.0,1256.0,8.0,4.0,,2
00-0027948,2014,veteran,QB,4.631338640830942,24.658639609188974,114.20251045236128,755.6490962962746,4.272672107020604,3.5148929193053333,11.870046912860957,34.92887919288273,0.34268575974857585,0.9713705929112243,6.616746806205175,0.03741311894192481,0.035688507410879866,0.012331970560335156,0.0028493500438849734,6.226733018878531e-06,1.3702237852652576e-11,1.3702237852652576e-11,0.2773773093164351,43.89312773328002,44.17050504259645,veteran,Blaine Gabbert,QB,1.0,6.02,0.0,0.0,0.0,0.0,1.0,5.0,0.0,7.0,3.0,38.0,1.0,0.0,0.0,0.0,0.0,0.0,0.0,0.0,0.0,0.0,0.0,0.0,0.0,0.0,0.0,0.0,0.0,16,12.44,7.61159420289855,0.6222826086956522,0.1875,24.878850102669404,0.43125,1.0,0.9375,0.25,0.5625,4.0,13.0,3.0,0.0,0.0,0.0,0.0,9.0,32.0,0.0,86.0,481.0,1.0,7.0,,2
00-0027950,2014,veteran,QB,8.705970350660806,28.97834656552454,252.28462601063003,1710.4257936224553,9.930061738285833,7.485127637220514,26.111354521437576,114.37879245101091,0.9586641639144069,1.9515547250028922,6.779746434292775,0.0393605504041591,0.09049410891193377,0.0323649857974907,0.008614741135826047,8.228295420730294e-05,1.3701848565934395e-11,1.3701848565934395e-11,1.3612076544169738,106.45377820218225,107.81498585659922,veteran,Christian Ponder,QB,2.0,12.48,0.0,0.0,0.0,0.0,4.0,16.0,1.0,44.0,22.0,222.0,0.0,2.0,6.0,0.0,0.0,0.0,0.0,0.0,0.0,0.0,0.0,0.0,0.0,0.0,0.0,0.0,0.0,16,107.02,11.912192982456139,0.7648026315789473,0.5625,26.5160848733744,0.7125,1.0,1.0,0.125,0.3125,2.0,7.0,9.0,0.0,0.0,0.0,0.0,34.0,151.0,4.0,239.0,1648.0,7.0,9.0,,2
00-0027973,2014,veteran,QB,13.858963700208623,36.3992260193628,504.45555211803827,3553.493434065546,24.528923982156403,15.091044528722934,32.79025941873808,97.15021279392334,1.1048185525204597,2.8521303912362,7.044215132821175,0.04862454953497438,0.29143265785226774,0.12091897063160867,0.04110566254395473,4.479271845458311e-06,1.3702287527626534e-11,1.3702287527626534e-11,7.692097912074929,220.71301604584428,228.4051139579192,veteran,Andy Dalton,QB,16.0,228.12,1.0,1.0,18.0,1.0,60.0,169.0,4.0,481.0,309.0,3398.0,19.0,17.0,21.0,2.0,0.0,0.0,3.0,3.0,0.0,0.0,0.0,0.0,0.0,0.0,3.0,0.0,0.0,16,296.02,16.936375,1.0,1.0,26.84188911704312,1.0,1.0,1.0,0.0,0.0,0.0,0.0,16.0,0.0,0.0,0.0,0.0,61.0,183.0,2.0,586.0,4293.0,33.0,20.0,,2
00-0027974,2014,veteran,QB,12.933986643681639,27.913306661623754,361.0303355424313,2644.1390568978677,16.656185628126927,8.06984355458717,57.32510194463565,313.08222968826846,2.065175142363024,2.696291576214503,7.323869482948494,0.04613514153347192,0.10950165798609912,0.039666542084775644,0.010906082944129319,0.0015890255943000785,1.3701401861393137e-11,1.3701401861393137e-11,2.4885334688433858,194.55730834982407,197.04584181866744,veteran,Colin Kaepernick,QB,16.0,254.16,0.0,0.0,0.0,0.0,104.0,639.0,1.0,478.0,289.0,3369.0,19.0,10.0,52.0,5.0,0.0,2.5,1.0,3.5,0.0,0.0,0.0,1.0,1.0,0.0,1.0,0.0,0.0,16,269.78,15.444384615384612,0.9235576923076921,1.0,26.82819986310746,0.8125000000000001,1.0,1.0,0.0,0.0,0.0,0.0,16.0,0.0,0.0,0.0,0.0,92.0,524.0,4.0,416.0,3197.0,21.0,8.0,,2
00-0028146,2014,veteran,QB,0.0,17.213231922292355,0.0,0.0,0.0,0.0,0.0,0.0,0.0,0.0,7.057669097376765,0.04388848202641707,9.357622968839299e-14,9.357622968839299e-14,9.357622968839299e-14,1.0518631549613466e-10,1.3703895119550464e-11,1.3703895119550464e-11,0.0,0.0,0.0,veteran,,,0.0,0.0,0.0,0.0,0.0,0.0,0.0,0.0,0.0,0.0,0.0,0.0,0.0,0.0,0.0,0.0,0.0,0.0,0.0,0.0,0.0,0.0,0.0,0.0,0.0,0.0,0.0,0.0,0.0,16,0.0,5.78,0.125,0.0,26.310746064339494,0.0375,0.0,0.125,0.0,1.0,0.0,16.0,0.0,0.0,0.0,0.0,0.0,0.0,0.0,0.0,0.0,0.0,0.0,0.0,,2
00-0028595,2014,veteran,QB,1.223596243795472,28.79914618141153,35.23852709209186,252.01092268344564,1.4049405228356295,1.06890587474319,3.0503893379241207,18.613285955120034,0.10147137369527257,0.24890008423333837,7.151573674598939,0.03986944514349247,0.11342489949207478,0.04119780238399493,0.011397298533406526,0.00016589149342327334,1.370174281517322e-11,1.370174281517322e-11,0.2424948629626011,15.534743918410923,15.777238781373525,veteran,,,0.0,0.0,0.0,0.0,0.0,0.0,0.0,0.0,0.0,0.0,0.0,0.0,0.0,0.0,0.0,0.0,0.0,0.0,0.0,0.0,0.0,0.0,0.0,0.0,0.0,0.0,0.0,0.0,0.0,16,35.18,11.726666666666667,0.1875,0.1875,26.99247091033539,0.10312500000000001,1.0,0.1875,0.0,0.8125,0.0,13.0,3.0,0.0,0.0,0.0,0.0,5.0,55.0,1.0,90.0,717.0,1.0,5.0,,2
00-0028986,2014,veteran,QB,5.637872524210611,30.208451249293084,170.31139729734517,1194.7472862382724,7.059046595259396,4.358459661195312,11.57565053684329,51.486556409118755,0.37651740484618856,1.180800197618754,7.015075357243259,0.04144788139419154,0.12961772975431096,0.04760826525137995,0.013491507221689354,1.4932993041346892e-05,1.3702105937602594e-11,1.3702105937602594e-11,1.2855932194437671,72.35531818292937,73.64091140237313,veteran,Case Keenum,QB,2.0,22.900000000000002,0.0,0.0,0.0,0.0,10.0,35.0,0.0,77.0,45.0,435.0,2.0,2.0,3.0,1.0,0.0,0.0,0.0,0.0,0.0,0.0,0.0,0.0,0.0,0.0,0.0,0.0,0.0,16,106.10000000000001,13.262500000000001,0.5,0.5,26.537987679671456,0.275,1.0,0.5,0.0625,0.4375,1.0,8.0,8.0,0.0,0.0,0.0,0.0,14.0,72.0,1.0,253.0,1760.0,9.0,6.0,,2
00-0029151,2014,veteran,QB,1.3235540496920404,14.305963339080066,18.934715712185284,132.09862717480598,0.8257788867114231,0.5052193165333319,2.8686595198485123,14.11028356161508,0.0886696657747063,0.2775791615759716,6.97653079046732,0.04361189781053854,0.0027121113925103408,0.0009253737380470426,0.00015164715657983526,3.067409969914265e-05,1.3701997378719373e-11,1.3701997378719373e-11,0.005868824563261393,8.964510028429071,8.970378852992333,veteran,Matt Simms,QB,1.0,1.76,0.0,0.0,0.0,0.0,1.0,2.0,0.0,8.0,3.0,39.0,0.0,0.0,0.0,0.0,0.0,0.0,0.0,0.0,0.0,0.0,0.0,0.0,0.0,0.0,0.0,0.0,0.0,16,9.94,3.313333333333333,0.1875,0.1875,25.927446954141,0.10312500000000001,1.0,0.1875,0.0,0.8125,0.0,13.0,3.0,0.0,0.0,0.0,0.0,5.0,37.0,0.0,31.0,156.0,1.0,1.0,,2
00-0029263,2014,veteran,QB,13.542669006968074,30.27364705597954,409.9859817129044,3064.92474884717,22.08118597119689,10.168304576938478,63.2231332610206,322.15764744849076,1.7615401452996893,2.921412717653658,7.475681817319806,0.05385839261855396,0.17451866249195633,0.06618429254808325,0.01987832126062443,0.0014588088552218287,1.3701414774417329e-11,1.3701414774417329e-11,4.266083649439658,227.52730486613729,231.79338851557694,veteran,Russell Wilson,QB,16.0,333.09999999999997,1.0,1.0,17.0,0.0,118.0,849.0,6.0,452.0,285.0,3475.0,20.0,7.0,42.0,0.0,0.0,3.0,2.0,5.0,0.0,0.0,0.0,3.0,0.0,0.0,2.0,0.0,0.0,16,273.18,17.127573529411762,1.0,1.0,25.754962354551676,0.8500000000000001,1.0,1.0,0.0,0.0,0.0,0.0,16.0,0.0,0.0,0.0,0.0,96.0,539.0,1.0,407.0,3357.0,26.0,9.0,,2
00-0029531,2014,veteran,QB,1.565253496065337,21.753615008060564,34.049921943426185,230.01344493541632,1.3028799360490213,0.967679383585408,2.774732521144879,9.420127097288953,0.0863893961784411,0.32860241792359013,6.75518273779255,0.038263815647323694,0.020770893922163303,0.0071196238112820895,0.00152568137702012,2.275947834059804e-06,1.3702389634904075e-11,1.3702389634904075e-11,0.0540074571488835,13.279843025394284,13.333850482543166,veteran,Ryan Lindley,QB,3.0,23.48,0.0,0.0,0.0,0.0,0.0,0.0,0.0,93.0,45.0,562.0,2.0,4.0,6.0,0.0,0.0,0.0,1.0,1.0,0.0,0.0,0.0,0.0,0.0,0.0,1.0,0.0,0.0,16,0.0,2.2966666666666664,0.375,0.0,25.193702943189596,0.11249999999999999,0.0,0.375,0.0,1.0,0.0,16.0,0.0,0.0,0.0,0.0,0.0,0.0,0.0,0.0,0.0,0.0,0.0,0.0,,2
00-0029567,2014,veteran,QB,10.013223575001769,31.052713162914998,310.9377595106682,2320.7700613896272,16.439001702936196,5.975097926557132,29.20117393549896,108.25178407226089,1.0023054831029499,2.085271918695791,7.463776882685109,0.052869107080486887,0.1935680465442366,0.07444362855744498,0.02285898665988093,3.2749440851601096e-05,1.3701987505642768e-11,1.3701987505642768e-11,3.5144833879440625,159.30508088266782,162.8195642706119,veteran,Nick Foles,QB,8.0,126.82000000000001,0.0,0.0,0.0,0.0,16.0,68.0,0.0,311.0,186.0,2163.0,13.0,10.0,9.0,3.0,0.0,0.0,7.5,7.5,0.0,0.0,0.0,0.0,0.0,0.0,4.0,1.0,1.0,16,268.74,18.887027027027028,0.727364864864865,0.8125,25.61259411362081,0.578125,1.0,0.8125,0.0625,0.125,1.0,3.0,13.0,0.0,0.0,0.0,0.0,57.0,221.0,3.0,317.0,2891.0,27.0,2.0,,2
00-0029604,2014,veteran,QB,3.056421852264477,25.438352169756783,77.7503354572441,533.6821387107619,3.2438671762349762,2.4491108254400946,4.731846666752047,19.017863481128206,0.14602190170073165,0.6454991601162555,6.864049339108518,0.04172158431417727,0.05042107348886565,0.017576018691680528,0.004270003676459569,2.635765531545852e-06,1.3702367499565792e-11,1.3702367499565792e-11,0.2607975834835041,30.911452040574893,31.1722496240584,veteran,Kirk Cousins,QB,6.0,95.39999999999999,0.0,0.0,0.0,0.0,7.0,20.0,0.0,204.0,126.0,1710.0,10.0,9.0,8.0,2.0,0.0,0.0,7.0,7.0,0.0,0.0,0.0,0.0,0.0,0.0,2.0,2.0,1.0,16,36.06,8.215068493150685,0.2816780821917808,0.3125,26.034223134839152,0.228125,1.0,0.3125,0.0,0.6875,0.0,11.0,5.0,0.0,0.0,0.0,0.0,4.0,14.0,0.0,155.0,854.0,4.0,7.0,,2
00-0029665,2014,veteran,QB,11.235411466283315,33.58343732087249,377.3237367521378,2702.511756784805,15.71509546510486,9.072807307008294,66.13259830489541,377.1589878240868,1.9055290071713205,2.3744053619987144,7.16231578762317,0.04164883874090337,0.22633821031983678,0.08922080307325805,0.02839471907205549,0.00796346976430429,1.3701157849755443e-11,1.3701157849755443e-11,4.774177138834153,197.21549961923424,201.98967675806838,veteran,Robert Griffin III,QB,9.0,88.35999999999999,0.0,0.0,0.0,0.0,38.0,176.0,1.0,214.0,147.0,1694.0,4.0,6.0,33.0,4.0,0.0,0.0,1.0,1.0,0.0,0.0,0.0,0.0,0.0,0.0,1.0,0.0,0.0,16,216.02,18.477339055793994,0.860783261802575,0.8125,24.550308008213552,0.728125,1.0,0.9375,0.0,0.1875,0.0,3.0,13.0,0.0,0.0,0.0,0.0,86.0,489.0,0.0,456.0,3203.0,16.0,12.0,,2
00-0029668,2014,veteran,QB,13.616518026132445,36.86012648207327,501.90657668867254,3459.1789024808622,20.37962343296596,11.49131626802049,51.74284193072403,255.5254306930335,1.9825546952989888,2.794352440123547,6.892077257291161,0.040604415999926674,0.2813505607740662,0.11579033063439904,0.03897358548457376,0.0004578064270838114,1.3701589691122e-11,1.3701589691122e-11,7.263609457652518,228.76218365590753,236.02579311356004,veteran,Andrew Luck,QB,16.0,374.24,0.0,0.0,0.0,0.0,64.0,273.0,3.0,616.0,380.0,4761.0,40.0,16.0,27.0,6.0,0.0,0.0,22.5,22.5,0.0,0.0,0.0,0.0,0.0,0.0,10.0,7.0,1.0,16,297.08,18.388382352941175,1.0,1.0,24.969199178644764,0.8500000000000001,1.0,1.0,0.0,0.0,0.0,0.0,16.0,0.0,0.0,0.0,0.0,63.0,377.0,4.0,570.0,3822.0,23.0,9.0,,2
00-0029677,2014,veteran,QB,7.18279977559205,33.89148995589543,243.43578644968593,1658.5106475172547,9.08513276370452,7.255512450923948,8.1152119754556,30.41211047923972,0.23735860629519448,1.4559476763632848,6.81292866470165,0.03732044863330833,0.19045705332427895,0.07307863680675525,0.022360660140562778,5.064341525787787e-07,1.3702616266400873e-11,1.3702616266400873e-11,2.4766066312008035,89.72339938662894,92.20000601782975,veteran,Brandon Weeden,QB,4.0,20.02,0.0,0.0,0.0,0.0,6.0,-1.0,0.0,41.0,24.0,303.0,3.0,2.0,1.0,0.0,0.0,0.0,0.0,0.0,0.0,0.0,0.0,0.0,0.0,0.0,0.0,0.0,0.0,16,92.14,11.427752808988766,0.7212078651685393,0.5,30.882956878850102,0.55625,1.0,0.9375,0.1875,0.3125,3.0,8.0,8.0,0.0,0.0,0.0,0.0,12.0,44.0,0.0,267.0,1731.0,9.0,9.0,,2
00-0029701,2014,veteran,QB,13.510527449420646,33.97688320426564,459.04561317699023,3142.635544049301,17.868589623068996,12.65577426004339,40.01401388880925,194.6278079095607,1.237927701932741,2.955015707882986,6.846020207664249,0.03892552092896171,0.19658146480537791,0.07577192104451343,0.023346061820494434,0.00012774353447236032,1.3701782226916362e-11,1.3701782226916362e-11,4.824058306351437,192.8485473209478,197.67260562729925,veteran,Ryan Tannehill,QB,16.0,282.5,1.0,1.0,-4.0,0.0,56.0,311.0,1.0,590.0,392.0,4045.0,27.0,12.0,46.0,2.0,0.0,0.0,3.5,3.5,0.0,0.0,0.0,0.0,0.0,0.0,2.0,1.0,0.0,16,243.32,13.973088235294115,1.0,1.0,26.09719370294319,0.8500000000000001,1.0,1.0,0.0,0.0,0.0,0.0,16.0,0.0,0.0,0.0,0.0,40.0,238.0,1.0,588.0,3913.0,24.0,17.0,,2
00-0030024,2014,veteran,QB,0.6727485862137685,25.162416437164783,16.9279800838247,117.1514587670589,0.7067414686013533,0.48513760082617136,1.5400679788702734,6.44112226351539,0.04784822973645316,0.13771327551535878,6.920581084508799,0.04174989958055719,0.049736271308761404,0.017330057420319907,0.004201720537341284,1.8584828821889467e-05,1.370207294490959e-11,1.370207294490959e-11,0.05661406970120066,7.198524077174967,7.255138146876168,veteran,,,0.0,0.0,0.0,0.0,0.0,0.0,0.0,0.0,0.0,0.0,0.0,0.0,0.0,0.0,0.0,0.0,0.0,0.0,0.0,0.0,0.0,0.0,0.0,0.0,0.0,0.0,0.0,0.0,0.0,16,12.059999999999999,6.029999999999999,0.125,0.125,23.550992470910334,0.06875,1.0,0.125,0.0,0.875,0.0,14.0,2.0,0.0,0.0,0.0,0.0,3.0,17.0,0.0,59.0,309.0,1.0,3.0,,2
00-0030419,2014,veteran,QB,4.931769282853707,28.001834458395567,138.0985870454697,980.7483116088482,5.853172994287549,4.073865655838369,9.425934098649305,28.477864596977742,0.2869148992077342,1.0089581271483594,7.101798306494849,0.04238401796508142,0.09595452255958228,0.03444293579156625,0.009257990232839516,1.8987436366691334e-06,1.3702416962207058e-11,1.3702416962207058e-11,0.8193483941370829,57.04625273047485,57.86560112461193,veteran,Matt McGloin,QB,1.0,5.46,0.0,0.0,0.0,0.0,2.0,3.0,0.0,19.0,12.0,129.0,1.0,2.0,1.0,0.0,0.0,0.0,0.0,0.0,0.0,0.0,0.0,0.0,0.0,0.0,0.0,0.0,0.0,16,78.58,11.225714285714286,0.4375,0.4375,24.747433264887064,0.24062500000000003,1.0,0.4375,0.0,0.5625,0.0,9.0,7.0,0.0,0.0,0.0,0.0,11.0,27.0,0.0,211.0,1547.0,8.0,8.0,,2
00-0030520,2014,veteran,QB,10.180308891560577,29.4577514591199,299.88900910465986,2028.7433731872568,13.323547950877447,7.323431846022739,22.50250526623917,44.70346012459474,0.6577145625209512,2.189626377005722,6.764980748191524,0.044428263612113876,0.0969286064440993,0.034815266545765985,0.009374009924870754,5.893063125199786e-07,1.3702593410656042e-11,1.3702593410656042e-11,1.7092750383803184,123.8344436725283,125.5437187109086,veteran,Mike Glennon,QB,6.0,91.58,0.0,0.0,0.0,0.0,10.0,49.0,0.0,203.0,117.0,1417.0,10.0,6.0,16.0,0.0,0.0,0.0,2.0,2.0,0.0,0.0,0.0,0.0,0.0,0.0,2.0,0.0,0.0,16,158.02,12.155384615384614,0.8125,0.8125,24.720054757015742,0.446875,1.0,0.8125,0.0,0.1875,0.0,3.0,13.0,0.0,0.0,0.0,0.0,27.0,37.0,0.0,416.0,2608.0,19.0,9.0,,2
00-0030526,2014,veteran,QB,7.582310234994626,29.141650322131653,220.9610335021333,1517.0244976745728,9.101021733059506,6.068488640555081,26.284722764858937,89.96815148727117,0.8344381113763291,1.6146238275681213,6.86557477411476,0.041188356104297635,0.09879645864040756,0.035530631026326434,0.00959755892360068,5.07563738711767e-05,1.3701921427866839e-11,1.3701921427866839e-11,1.2991399899119647,95.72228571995963,97.0214257098716,veteran,EJ Manuel,QB,4.0,58.72,0.0,0.0,0.0,0.0,16.0,52.0,1.0,131.0,76.0,838.0,5.0,3.0,6.0,0.0,0.0,0.0,0.0,0.0,0.0,0.0,0.0,0.0,0.0,0.0,0.0,0.0,0.0,16,133.48,13.347999999999997,0.625,0.625,24.45448323066393,0.34375,1.0,0.625,0.375,0.0,6.0,6.0,10.0,0.0,0.0,0.0,0.0,53.0,186.0,2.0,306.0,1972.0,11.0,9.0,,2
00-0030533,2014,veteran,QB,1.5065972415749922,15.873422201861747,23.914854103680145,167.36959515881946,0.9776219286365735,0.734543380665574,2.141063140407909,6.343884123728563,0.066691707691624,0.3159674508542837,6.998562250608241,0.04087927630242711,0.004776777000687236,0.0016287029381233976,0.00028723815894036135,4.949986967527798e-07,1.3702619710813894e-11,1.3702619710813894e-11,0.011743628355532465,9.538788516381958,9.55053214473749,veteran,Matt Barkley,QB,1.0,0.0,0.0,0.0,0.0,0.0,3.0,0.0,0.0,1.0,0.0,0.0,0.0,0.0,0.0,0.0,0.0,0.0,0.0,0.0,0.0,0.0,0.0,0.0,0.0,0.0,0.0,0.0,0.0,16,1.8000000000000005,0.6000000000000002,0.1875,0.1875,23.980835044490075,0.10312500000000001,1.0,0.1875,0.0,0.8125,0.0,13.0,3.0,0.0,0.0,0.0,0.0,2.0,-2.0,0.0,49.0,300.0,0.0,4.0,,2
00-0030565,2014,veteran,QB,12.88110224488773,27.07872530588178,348.803829326292,2429.8536045154297,12.818232176615718,12.41301660129793,56.796166833565074,267.0685216252289,2.205132651567611,2.7223606612649824,6.9662469279899994,0.03674911540212701,0.07417935192826372,0.02624795914433342,0.006765105180133129,0.0007441876304132128,1.3701516382324234e-11,1.3701516382324234e-11,1.646535765454046,158.1339664338828,159.78050219933684,veteran,Geno Smith,QB,14.0,154.3,1.0,0.0,0.0,0.0,59.0,238.0,1.0,367.0,219.0,2525.0,13.0,13.0,28.0,3.0,0.0,0.0,3.5,3.5,0.0,0.0,0.0,0.0,0.0,0.0,2.0,1.0,0.0,16,195.24,12.2025,1.0,1.0,23.89322381930185,0.55,1.0,1.0,0.0,0.0,0.0,0.0,16.0,1.0,1.0,13.0,0.0,72.0,366.0,6.0,443.0,3046.0,12.0,21.0,,2
00-0031064,2014,rookie,QB,5.298010107299785,25.19854212475485,133.5021308661706,929.7433570132247,4.974604115925748,3.857856253166907,14.469469069307115,69.03142535148602,0.7399160319532048,1.177335579399952,6.96425855513308,0.037262357414448666,0.051716492804858634,0.018041895050372667,0.004399749505805559,7.910526692860783e-05,1.3701854505718706e-11,1.3701854505718706e-11,0.4644126505523047,58.360405805966096,58.8248184565184,rookie,Tom Savage,QB,2.0,0.48000000000000015,0.0,0.0,0.0,0.0,6.0,-6.0,0.0,19.0,10.0,127.0,0.0,1.0,1.0,1.0,0.0,0.0,0.0,0.0,0.0,0.0,0.0,0.0,0.0,0.0,0.0,0.0,0.0,16,0.0,,,0.0,24.35044490075291,0.0,0.0,0.0,0.0,1.0,0.0,16.0,0.0,0.0,0.0,0.0,0.0,0.0,0.0,0.0,0.0,0.0,0.0,0.0,,2
00-0031237,2014,rookie,QB,7.610212595275218,24.118003665056772,183.54313526470892,1278.2418500031972,6.839249907202081,5.303908091299573,34.12328219494727,162.79649213839426,1.7449405667870765,1.691158354505604,6.96425855513308,0.037262357414448666,0.04140131084883568,0.014353736663884703,0.0033879191591647236,0.0008670379711258929,1.3701493323229052e-11,1.3701493323229052e-11,0.5370891723729453,91.24583335188774,91.78292252426068,rookie,Teddy Bridgewater,QB,13.0,182.66,0.0,0.0,0.0,0.0,47.0,209.0,1.0,402.0,259.0,2919.0,14.0,12.0,39.0,0.0,0.0,0.0,3.0,3.0,0.0,0.0,0.0,0.0,0.0,0.0,3.0,0.0,0.0,16,0.0,,,0.0,21.806981519507186,0.0,0.0,0.0,0.0,1.0,0.0,16.0,0.0,0.0,0.0,0.0,0.0,0.0,0.0,0.0,0.0,0.0,0.0,0.0,,2
00-0031260,2014,rookie,QB,4.72156730879882,23.442236822185357,110.68409902475031,770.8326835503143,4.124350457956475,3.198475865354001,15.490216511490278,73.90124127356819,0.7921133443375711,1.049237179733071,6.96425855513308,0.037262357414448666,0.0357984318306279,0.012370735596570126,0.0028595589653613866,0.00019027364236194892,1.3701722132150023e-11,1.3701722132150023e-11,0.28454018689839045,50.97808727704657,51.26262746394496,rookie,Logan Thomas,TE,2.0,7.24,0.0,0.0,0.0,0.0,0.0,0.0,0.0,9.0,1.0,81.0,1.0,0.0,2.0,0.0,0.0,0.0,0.0,0.0,0.0,0.0,0.0,0.0,0.0,0.0,0.0,0.0,0.0,16,0.0,,,0.0,23.170431211498972,0.0,0.0,0.0,0.0,1.0,0.0,16.0,0.0,0.0,0.0,0.0,0.0,0.0,0.0,0.0,0.0,0.0,0.0,0.0,,2
00-0031280,2014,rookie,QB,8.536050765026527,26.635456254375285,227.36160673699075,1583.4050148268907,8.472029452557068,6.570145289738136,32.0006550111618,152.66979161575105,1.636397131252592,1.8969001700058947,6.96425855513308,0.037262357414448666,0.0682676625111952,0.024064515882320378,0.00612188777785267,0.0003625200528929978,1.3701624897278123e-11,1.3701624897278123e-11,0.9984681062994499,105.37558943290651,106.37405753920596,rookie,Derek Carr,QB,16.0,193.0,1.0,0.0,0.0,0.0,29.0,92.0,0.0,599.0,348.0,3270.0,21.0,12.0,24.0,4.0,0.0,0.0,1.0,1.0,0.0,0.0,0.0,0.0,0.0,0.0,1.0,0.0,0.0,16,0.0,,,0.0,23.430527036276523,0.0,0.0,0.0,0.0,1.0,0.0,16.0,0.0,0.0,0.0,0.0,0.0,0.0,0.0,0.0,0.0,0.0,0.0,0.0,,2
00-0031345,2014,rookie,QB,6.433924465397905,24.366237584456638,156.77053212433353,1091.7905195396552,5.841639600070222,4.5302511184218055,24.05658797255717,114.7699717857415,1.2301664304148554,1.4297609923106456,6.96425855513308,0.037262357414448666,0.04361910543439357,0.015142577856035927,0.0036012848568848805,0.0003579192221372225,1.3701626824067674e-11,1.3701626824067674e-11,0.4754249478624741,73.97615072146547,74.45157566932795,rookie,Jimmy Garoppolo,QB,5.0,12.18,0.0,0.0,0.0,0.0,10.0,9.0,0.0,27.0,19.0,182.0,1.0,0.0,5.0,0.0,0.0,0.0,0.0,0.0,0.0,0.0,0.0,0.0,0.0,0.0,0.0,0.0,0.0,16,0.0,,,0.0,22.830937713894592,0.0,0.0,0.0,0.0,1.0,0.0,16.0,0.0,0.0,0.0,0.0,0.0,0.0,0.0,0.0,0.0,0.0,0.0,0.0,,2
00-0031407,2014,rookie,QB,15.418739051051237,31.0690886301608,479.0461701424323,3336.201388718171,17.8503896098701,13.843159289287016,80.80058023680645,385.48610154643075,4.131847853018512,3.4263864557891637,6.96425855513308,0.037262357414448666,0.1426577767359309,0.05287907617754475,0.015257130245058299,0.0018625088093498646,1.3701377872846582e-11,1.3701377872846582e-11,3.9218050062417427,233.65021977080903,237.57202477705079,rookie,Blake Bortles,QB,14.0,169.22,0.0,0.0,0.0,0.0,56.0,419.0,0.0,475.0,280.0,2908.0,11.0,17.0,55.0,1.0,0.0,0.0,1.0,1.0,0.0,0.0,0.0,0.0,0.0,0.0,1.0,0.0,0.0,16,0.0,,,0.0,22.71047227926078,0.0,0.0,0.0,0.0,1.0,0.0,16.0,0.0,0.0,0.0,0.0,0.0,0.0,0.0,0.0,0.0,0.0,0.0,0.0,,2
00-0031409,2014,rookie,QB,8.677492853163786,24.850708472636992,215.64184516736424,1501.7855650514994,8.035323508137527,6.231475373657673,40.72483751875974,194.29141232908293,2.082520100391123,1.928331745147508,6.96425855513308,0.037262357414448666,0.048205831554044586,0.016781156079074284,0.0040498847186471836,0.0010839272050743687,1.3701459622627679e-11,1.3701459622627679e-11,0.7164247641029381,107.81736423225475,108.53378899635769,rookie,Johnny Manziel,QB,4.0,11.9,0.0,0.0,0.0,0.0,9.0,29.0,1.0,35.0,18.0,175.0,0.0,2.0,3.0,0.0,0.0,0.0,0.0,0.0,0.0,0.0,0.0,0.0,0.0,0.0,0.0,0.0,0.0,16,0.0,,,0.0,21.73579739904175,0.0,0.0,0.0,0.0,1.0,0.0,16.0,0.0,0.0,0.0,0.0,0.0,0.0,0.0,0.0,0.0,0.0,0.0,0.0,,2
00-0007091,2015,veteran,QB,2.147250373805354,13.377566620864716,28.724984927257786,203.6142055323211,1.2517514961345542,0.7046807096907316,1.6462702396186062,2.4031273348153337,0.049018283079398116,0.431592760949415,7.088400778901958,0.04357709844946651,0.0019515213046233397,0.0003144925617824966,3.557565147666083e-05,1.6510426936675467e-09,9.047780054935498e-08,1.3705748041923669e-11,0.005356420940772502,11.413449696508692,11.418806117449465,veteran,Matt Hasselbeck,QB,8.0,92.1,0.0,0.0,0.0,0.0,16.0,15.0,0.0,256.0,156.0,1690.0,9.0,5.0,16.0,2.0,0.0,0.0,1.0,1.0,0.0,0.0,0.0,0.0,0.0,0.0,1.0,0.0,0.0,16,16.939999999999998,5.043953488372093,0.30668604651162795,0.25,39.93429158110883,0.26875,1.0,0.5,0.0,0.75,0.0,12.0,4.0,0.0,0.0,0.0,0.0,8.0,-11.0,0.0,44.0,301.0,2.0,0.0,,3
00-0010346,2015,veteran,QB,13.479195284004804,36.94319662875565,497.96456177438534,3773.776320253097,30.005195418122977,11.410418762691998,17.530912345965902,0.0,0.4991258106319749,2.7203056445308826,7.5784033843815894,0.060255684282444065,0.3922837422740581,0.1710119875414546,0.05882950344363873,2.3599534873612555e-11,5.9262594036056716e-09,1.3706553544212506e-11,10.331273984082936,245.7051405319619,256.03641451604483,veteran,Peyton Manning,QB,10.0,93.36,0.0,0.0,0.0,0.0,6.0,-6.0,0.0,331.0,198.0,2249.0,9.0,17.0,16.0,0.0,0.0,0.0,2.0,2.0,0.0,0.0,0.0,0.0,0.0,0.0,2.0,0.0,0.0,16,328.18,22.5679375,1.0,1.0,39.43874058863792,1.0,1.0,1.0,0.0,0.0,0.0,0.0,16.0,0.0,0.0,0.0,0.0,24.0,-24.0,0.0,597.0,4727.0,39.0,15.0,,3
00-0019596,2015,veteran,QB,13.588477858399429,35.35622800111166,480.43732134962767,3407.471933438518,23.132113158216022,9.475333713687073,22.486666192556147,33.32462102152535,0.6483273902035795,2.6933907420483294,7.092438039297962,0.048148035404980825,0.2631815786180738,0.0961915749148606,0.028336706088543693,2.6099932180112223e-08,5.318762281043336e-07,1.3705224610697424e-11,6.306999285274671,211.71230750230802,218.0193067875827,veteran,Tom Brady,QB,16.0,359.2,1.0,1.0,36.0,0.0,34.0,53.0,3.0,624.0,402.0,4770.0,36.0,7.0,38.0,2.0,0.0,0.0,15.0,15.0,0.0,0.0,0.0,0.0,0.0,0.0,7.0,4.0,1.0,16,286.06,18.1613125,1.0,1.0,38.078028747433265,1.0,1.0,1.0,0.0,0.0,0.0,0.0,16.0,0.0,0.0,0.0,0.0,36.0,57.0,0.0,582.0,4109.0,33.0,9.0,,3
00-0020245,2015,veteran,QB,6.8363346557013775,19.931487360964166,136.25831778543332,949.3435144616732,5.509458670497639,3.3406446837547197,23.269271172979888,140.06851288079682,0.6800384033975648,1.4095276729522934,6.9672334863006995,0.040433925502980396,0.014797147128560974,0.00306636167042982,0.0004916274074746361,0.0008087630369622329,0.0004051839171413545,1.3703263785951065e-11,0.1490080547662519,68.59831225550853,68.74732031027479,veteran,Mike Vick,QB,5.0,30.740000000000002,0.0,0.0,0.0,0.0,20.0,99.0,0.0,66.0,40.0,371.0,2.0,1.0,10.0,0.0,0.0,0.0,0.0,0.0,0.0,0.0,0.0,0.0,0.0,0.0,0.0,0.0,0.0,16,43.46,9.237426900584794,0.5427631578947368,0.5625,35.181382614647504,0.534375,1.0,0.625,0.0,0.4375,0.0,7.0,9.0,0.0,0.0,0.0,0.0,26.0,153.0,0.0,121.0,604.0,3.0,2.0,,3
00-0020531,2015,veteran,QB,13.689164845484955,39.127780349248916,535.6266352387953,3958.4510776186094,27.250360520846428,13.218118324977928,22.84274585862638,48.16705264322022,0.7646362694831439,2.701963593363285,7.390317839317001,0.050875663620980234,0.43435828288130435,0.20032034467735138,0.07250747799456198,1.196063199906723e-07,1.412596712408712e-06,1.3704935976672251e-11,12.044493747838498,244.90384423266855,256.94833798050706,veteran,Drew Brees,QB,15.0,325.7,0.0,0.0,0.0,0.0,24.0,14.0,1.0,627.0,428.0,4870.0,32.0,11.0,31.0,2.0,0.0,0.0,21.5,21.5,0.0,0.0,0.0,0.0,0.0,0.0,10.0,5.0,2.0,16,317.98,21.505000000000003,1.0,1.0,36.62696783025325,1.0,1.0,1.0,0.0,0.0,0.0,0.0,16.0,1.0,1.0,1.0,0.0,27.0,68.0,1.0,659.0,4952.0,33.0,17.0,,3
00-0020679,2015,veteran,QB,5.178546986592947,24.996579932845204,129.44596368636525,928.7628177920042,5.531952609429601,3.482044979568904,4.936622993118906,10.153571078145816,0.15897427331308825,1.0328889621431918,7.174907516176438,0.042735613007084366,0.05583043363672935,0.014041550487297536,0.002866460787553279,1.0944754512002306e-08,3.0452886052865855e-07,1.3705389395866014e-11,0.4278833934068281,52.21765801366748,52.64554140707431,veteran,Shaun Hill,QB,3.0,0.09999999999999998,0.0,0.0,0.0,0.0,4.0,-5.0,0.0,7.0,2.0,15.0,0.0,0.0,1.0,0.0,0.0,0.0,0.0,0.0,0.0,0.0,0.0,0.0,0.0,0.0,0.0,0.0,0.0,16,89.78,10.625979381443297,0.4594072164948453,0.5,35.644079397672826,0.30312500000000003,1.0,0.5,0.0,0.5,0.0,8.0,8.0,1.0,1.0,0.0,0.0,10.0,10.0,1.0,229.0,1657.0,8.0,7.0,,3
00-0021206,2015,veteran,QB,8.122149030724504,27.825705736095887,226.00452887365648,1609.8435463191113,9.692062395783038,6.416533713823557,16.18861502407032,75.8858774459477,0.5882838578351418,1.6779627105993893,7.123058791530074,0.04288437246848801,0.09179802021252,0.02528235955969212,0.005702414577896605,1.2940933605341795e-05,2.8528118723781052e-05,1.3704047902380869e-11,1.1467022341148378,98.09128947865634,99.23799171277118,veteran,Josh McCown,QB,8.0,140.16,0.0,0.0,0.0,0.0,20.0,98.0,1.0,292.0,186.0,2109.0,12.0,4.0,23.0,6.0,0.0,0.0,8.0,8.0,0.0,0.0,0.0,0.0,0.0,0.0,3.0,2.0,1.0,16,128.94,13.43609467455621,0.6342455621301776,0.6875,36.16153319644079,0.5281250000000001,1.0,0.6875,0.125,0.1875,2.0,5.0,11.0,0.0,0.0,0.0,0.0,25.0,127.0,3.0,327.0,2206.0,11.0,14.0,,3
00-0021429,2015,veteran,QB,6.723346822494621,33.9420479043565,228.20415992671548,1642.2603307435177,10.039184990157306,6.047859830197912,9.172512857407666,16.84573467092811,0.2686562643754847,1.362296215884029,7.196452208719185,0.0439921208858824,0.2367634004761784,0.08332748882159603,0.02374131529967458,2.8455203638934122e-08,5.621949926434382e-07,1.370520822878308e-11,2.7514499218774247,94.32335215155177,97.0748020734292,veteran,Carson Palmer,QB,16.0,327.74,0.0,0.0,0.0,0.0,25.0,24.0,1.0,537.0,342.0,4671.0,35.0,11.0,25.0,2.0,0.0,0.0,18.5,18.5,0.0,0.0,0.0,0.0,0.0,0.0,9.0,5.0,1.0,16,105.53999999999999,15.729275362318841,0.7871376811594203,0.375,35.67967145790554,0.646875,1.0,1.0,0.0625,0.5625,1.0,10.0,6.0,0.0,0.0,0.0,0.0,8.0,25.0,0.0,224.0,1626.0,11.0,3.0,,3
00-0021678,2015,veteran,QB,12.871089884490504,33.606377314220055,432.5507031034289,3230.9402534326923,24.098267753636122,10.17316898793096,20.257960940357588,45.993584038921824,0.5682939892070102,2.552521983099161,7.46950641913563,0.05571200689477065,0.26426707500938873,0.09673647994276925,0.028535676740304616,1.2804219868852733e-07,1.4757423010436268e-06,1.3704923054280897e-11,6.003661829127728,208.1884215489262,214.19208337805392,veteran,Tony Romo,QB,4.0,43.16,0.0,0.0,0.0,0.0,4.0,13.0,0.0,121.0,83.0,884.0,5.0,7.0,6.0,1.0,0.0,0.0,2.5,2.5,0.0,0.0,0.0,0.0,0.0,0.0,1.0,1.0,0.0,16,267.3,18.00851485148515,0.9474009900990099,0.9375,35.36208076659822,0.946875,1.0,1.0,0.0,0.0625,0.0,1.0,15.0,0.0,0.0,0.0,0.0,26.0,61.0,0.0,435.0,3705.0,34.0,9.0,,3
00-0022787,2015,veteran,QB,3.5522992904924364,27.199518658454206,96.62083083216267,679.6227112739194,3.907434185335311,2.847092314169946,4.231862227036127,10.70786759691175,0.12735115419512627,0.7079179091898109,7.033914999700976,0.04044090856683695,0.07716471859115782,0.02055032988103892,0.004471961604068479,6.124549399105304e-08,9.193946115738127e-07,1.3705062882994813e-11,0.4153901671595357,37.539518430440445,37.95490859759998,veteran,Matt Schaub,QB,2.0,27.6,0.0,0.0,0.0,0.0,4.0,10.0,0.0,80.0,52.0,540.0,3.0,4.0,3.0,0.0,0.0,0.0,1.0,1.0,0.0,0.0,0.0,0.0,0.0,0.0,1.0,0.0,0.0,16,-3.72,9.964153846153845,0.6788461538461538,0.125,34.18480492813142,0.40625,1.0,1.0,0.0625,0.8125,1.0,14.0,2.0,0.0,0.0,0.0,0.0,0.0,0.0,0.0,10.0,57.0,0.0,2.0,,3
00-0022803,2015,veteran,QB,13.799604108829852,34.425024051911755,475.0517033533279,3399.7957013080218,21.125627981996278,13.781503159835001,20.00155720873107,49.23051051202327,0.6193889719103959,2.7658418296195193,7.1566856350778405,0.04447016573748337,0.24519698500854728,0.087352090810828,0.025157842082052344,1.2711512964006622e-07,1.4688773766188568e-06,1.3704924432080338e-11,5.886126410034308,196.03903488406164,201.92516129409594,veteran,Eli Manning,QB,16.0,299.88,0.0,0.0,0.0,0.0,20.0,61.0,0.0,618.0,387.0,4432.0,35.0,14.0,27.0,4.0,0.0,0.0,12.5,12.5,0.0,0.0,0.0,0.0,0.0,0.0,6.0,3.0,1.0,16,281.0,15.2474375,1.0,1.0,34.65845311430527,1.0,1.0,1.0,0.0,0.0,0.0,0.0,16.0,0.0,0.0,0.0,0.0,12.0,31.0,1.0,601.0,4410.0,30.0,14.0,,3
00-0022924,2015,veteran,QB,13.656862012040218,36.562800444499445,499.33312044429164,3712.638026290655,24.28911074036366,10.568276524643615,24.201245596910347,50.23101491335934,0.6772883192178465,2.8996993184248367,7.435192808735101,0.04864309965810387,0.35530420252696643,0.1473849173601495,0.048515784210266734,1.4552679157701656e-07,1.602064517283337e-06,1.3704898784787996e-11,9.19674523207982,227.81284373358693,237.00958896566675,veteran,Ben Roethlisberger,QB,12.0,247.12,0.0,0.0,-3.0,0.0,15.0,29.0,0.0,469.0,319.0,3938.0,21.0,16.0,20.0,0.0,0.0,0.0,19.0,19.0,0.0,0.0,0.0,0.0,0.0,0.0,8.0,6.0,1.0,16,326.68,19.054405144694535,0.9764871382636656,1.0,33.50034223134839,0.971875,1.0,1.0,0.0,0.0,0.0,0.0,16.0,0.0,0.0,-6.0,0.0,33.0,27.0,0.0,608.0,4952.0,32.0,9.0,,3
00-0022942,2015,veteran,QB,13.841229711703832,34.47640990786822,477.1959091696659,3510.4401812535834,24.066483923568065,12.851275066350082,26.42653540463297,68.21749769740084,0.6999321253475295,2.7588369211889843,7.3563920264149925,0.05043313125932788,0.27516052795640467,0.10227789740905788,0.03057877893601067,5.557349345222937e-07,3.7850744503768537e-06,1.3704644729737756e-11,6.778619968416722,216.4846614911627,223.26328145957945,veteran,Philip Rivers,QB,16.0,302.48,0.0,0.0,0.0,0.0,17.0,28.0,0.0,661.0,437.0,4792.0,29.0,13.0,40.0,2.0,0.0,0.0,18.0,18.0,0.0,0.0,0.0,0.0,0.0,0.0,8.0,4.0,2.0,16,274.14,17.116500000000002,1.0,1.0,33.73032169746749,1.0,1.0,1.0,0.0,0.0,0.0,0.0,16.0,0.0,0.0,0.0,0.0,37.0,102.0,0.0,570.0,4286.0,31.0,18.0,,3
00-0023436,2015,veteran,QB,12.655722846125595,31.27992073289263,395.87000744426695,2780.2396331254504,17.169425029359918,7.7309488602022975,42.59395395312344,212.79843247795745,1.159635777103354,2.4657645981963947,7.023112589596396,0.04337137117359702,0.1493329461733898,0.04588345850780786,0.011544051497362864,0.0002801566969486603,0.00020519201191542908,1.3703464874495852e-11,3.0605863779611275,187.73151643607616,190.7921028140373,veteran,Alex Smith,QB,16.0,273.74,0.0,0.0,0.0,0.0,84.0,498.0,2.0,470.0,307.0,3486.0,20.0,7.0,45.0,0.0,0.0,0.0,2.5,2.5,0.0,0.0,0.0,0.0,0.0,0.0,1.0,1.0,0.0,16,221.0,15.17319298245614,0.9046052631578947,0.9375,31.318275154004105,0.890625,1.0,0.9375,0.0625,0.0,1.0,1.0,15.0,0.0,0.0,0.0,0.0,49.0,254.0,1.0,464.0,3265.0,18.0,6.0,,3
00-0023459,2015,veteran,QB,13.105864551003005,35.16728116977763,460.8976236381442,3537.513747816441,26.777169769584372,8.625162457412598,38.03782061453252,194.12650333911165,1.1767363128801367,2.565834378772093,7.67527009554248,0.058097869019622946,0.346573326143747,0.14207906176584656,0.04628637664165296,0.00014275322203591536,0.00013312726777066957,1.3703592725297028e-11,8.552980470290713,252.70030352981777,261.25328400010847,veteran,Aaron Rodgers,QB,16.0,305.74,0.0,0.0,0.0,0.0,58.0,344.0,1.0,572.0,347.0,3821.0,31.0,8.0,46.0,4.0,0.0,0.0,4.5,4.5,0.0,0.0,0.0,0.0,0.0,0.0,3.0,1.0,0.0,16,367.14,22.14021582733813,0.9150179856115109,1.0,31.748117727583846,0.86875,1.0,1.0,0.0,0.0,0.0,0.0,16.0,0.0,0.0,0.0,0.0,43.0,269.0,2.0,520.0,4381.0,38.0,5.0,,3
00-0023460,2015,veteran,QB,3.261324246419682,20.149542005241692,65.71418989594659,454.42151581484694,2.7436365314090536,1.663640917673585,4.221196415320221,21.411762879271652,0.12635653613414552,0.6589493794824398,6.915120106241723,0.041751051572778926,0.015062665697517824,0.0031287077282687384,0.000503190384237608,2.2066968599502428e-06,9.16946546558634e-06,1.3704383279286369e-11,0.06776402016107,27.405541668650084,27.473305688811156,veteran,,,0.0,0.0,0.0,0.0,0.0,0.0,0.0,0.0,0.0,0.0,0.0,0.0,0.0,0.0,0.0,0.0,0.0,0.0,0.0,0.0,0.0,0.0,0.0,0.0,0.0,0.0,0.0,0.0,0.0,16,1.06,6.8199999999999985,0.4076327433628318,0.25,33.667351129363446,0.353125,1.0,0.5625,0.0,0.75,0.0,12.0,4.0,0.0,0.0,0.0,0.0,1.0,1.0,0.0,19.0,74.0,0.0,0.0,,3
00-0023541,2015,veteran,QB,8.745378886138802,32.82295784264646,287.04920249770436,2013.7452899182053,12.319947759234413,7.095549409935488,11.637141152999558,24.15175694388034,0.37089629271874663,1.7749727464583422,7.015331421916457,0.04291928927875332,0.1843207958636058,0.0599567681707305,0.015911327373699824,4.240018919624254e-08,7.261486995787919e-07,1.3705132608778679e-11,2.676783247726501,116.72911177157872,119.40589501930522,veteran,,,0.0,0.0,0.0,0.0,0.0,0.0,0.0,0.0,0.0,0.0,0.0,0.0,0.0,0.0,0.0,0.0,0.0,0.0,0.0,0.0,0.0,0.0,0.0,0.0,0.0,0.0,0.0,0.0,0.0,16,180.62,14.658639455782312,0.6849489795918368,0.75,32.79671457905544,0.45937500000000003,1.0,0.75,0.0,0.25,0.0,4.0,12.0,0.0,0.0,0.0,0.0,15.0,14.0,1.0,447.0,3018.0,18.0,10.0,,3
00-0023645,2015,veteran,QB,2.872062215543992,16.17213285318568,46.44737171239225,332.5525796330726,2.1279655972925102,1.039943142519115,3.0611735634092767,8.8456788763084,0.09159030288423496,0.5665157346429306,7.159771745369758,0.045814553522406626,0.005649056290837763,0.0010359217819972887,0.00014055834467956784,6.712209724373552e-08,9.750666212295725e-07,1.370504551063529e-11,0.021499066996127057,20.035157525105102,20.05665659210123,veteran,Derek Anderson,QB,3.0,1.24,0.0,0.0,0.0,0.0,7.0,-2.0,0.0,6.0,4.0,36.0,0.0,0.0,0.0,0.0,0.0,0.0,0.0,0.0,0.0,0.0,0.0,0.0,0.0,0.0,0.0,0.0,0.0,16,50.44,7.111392405063291,0.2697784810126583,0.3125,32.2135523613963,0.24687499999999998,1.0,0.3125,0.0,0.6875,0.0,11.0,5.0,0.0,0.0,0.0,0.0,8.0,24.0,0.0,97.0,701.0,5.0,0.0,,3
00-0023662,2015,veteran,QB,2.984403815305264,25.717645701670328,76.75183995273396,538.1073150017812,3.26505626340504,2.3680937698545748,5.333187556175483,17.989559352522967,0.16338845879839908,0.6063350362865579,7.011002150999422,0.04254042985048642,0.0573558010163466,0.014490856352617263,0.002973616761457503,1.4544778424324896e-06,7.017497430971229e-06,1.3704462313385672e-11,0.25382742367824235,31.414946729451838,31.66877415313008,veteran,Matt Cassel,QB,8.0,66.84,0.0,0.0,0.0,0.0,15.0,78.0,0.0,204.0,119.0,1276.0,5.0,7.0,14.0,0.0,0.0,0.0,0.0,0.0,0.0,0.0,0.0,0.0,0.0,0.0,0.0,0.0,0.0,16,22.8,10.102631578947369,0.4539473684210526,0.1875,33.29226557152635,0.35624999999999996,1.0,0.5625,0.0,0.8125,0.0,13.0,3.0,0.0,0.0,0.0,0.0,9.0,18.0,0.0,71.0,425.0,3.0,4.0,,3
00-0023682,2015,veteran,QB,10.211458295515477,29.559293247385295,301.8434902405872,2182.7412280235258,14.028252592118758,8.316041855829065,29.180152214439154,115.65968558495317,0.9600061097803119,2.0375257505924247,7.2313675749102675,0.04647525305560642,0.13162682506592902,0.03920855901498614,0.009573813642679356,3.490553813985955e-05,5.3923248534744805e-05,1.3703859775862731e-11,2.14137426925977,140.0415294937503,142.18290376301005,veteran,Ryan Fitzpatrick,QB,16.0,287.7,0.0,0.0,0.0,0.0,60.0,270.0,2.0,562.0,335.0,3905.0,31.0,15.0,19.0,2.0,0.0,0.0,2.5,2.5,0.0,0.0,0.0,0.0,0.0,0.0,1.0,1.0,0.0,16,182.22,15.008048780487803,0.7820121951219512,0.75,32.76933607118412,0.76875,1.0,1.0,0.0,0.25,0.0,4.0,12.0,0.0,0.0,0.0,0.0,50.0,184.0,2.0,312.0,2483.0,17.0,8.0,,3
00-0024226,2015,veteran,QB,12.421072991042838,34.099728963463654,423.5552224299596,2977.4869007997213,20.048976607850385,12.466720316567274,30.771599490982002,146.15114345170412,0.9409215986507145,2.6493185564911257,7.029748998767422,0.047334976754219445,0.21900786721657797,0.07509974762757884,0.020906574211161995,4.2563035895896436e-05,6.124153928836011e-05,1.3703822170980056e-11,4.640575750545699,189.3239486543483,193.964524404894,veteran,Jay Cutler,QB,15.0,230.96,0.0,0.0,0.0,0.0,38.0,201.0,1.0,483.0,311.0,3659.0,21.0,11.0,29.0,5.0,0.0,0.0,4.5,4.5,0.0,0.0,0.0,0.0,0.0,0.0,3.0,1.0,0.0,16,261.08,16.16514492753623,0.8777173913043478,0.9375,32.342231348391515,0.8625,1.0,0.9375,0.0,0.0625,0.0,1.0,15.0,0.0,0.0,0.0,0.0,39.0,191.0,2.0,561.0,3812.0,28.0,18.0,,3
00-0024264,2015,veteran,QB,1.8485334085213951,19.613598536350104,36.256392155769504,257.39765530095997,1.549706642337573,0.9617726330959094,2.9554401205565433,9.200659942853074,0.08789790727864048,0.37805177305731236,7.099373103509421,0.04274299096500055,0.015010162290332106,0.003116366876613188,0.0005008986901245069,5.820564901071065e-07,3.899150668237764e-06,1.3704635955737268e-11,0.03825159238085707,15.262537407039398,15.300788999420256,veteran,Kellen Clemens,QB,2.0,6.42,0.0,0.0,0.0,0.0,1.0,-1.0,0.0,6.0,5.0,63.0,1.0,0.0,0.0,0.0,0.0,0.0,0.0,0.0,0.0,0.0,0.0,0.0,0.0,0.0,0.0,0.0,0.0,16,0.4,6.707792207792208,0.5056818181818182,0.0625,32.238193018480494,0.24062499999999998,1.0,0.625,0.0,0.9375,0.0,15.0,1.0,0.0,0.0,0.0,0.0,0.0,0.0,0.0,3.0,10.0,0.0,0.0,,3
00-0024296,2015,veteran,QB,4.45451798508148,23.214111958319407,103.40767922602885,738.4448216451781,4.482824825434428,2.325075999021891,8.728640567631778,31.823658808261506,0.25301021816357405,0.8760493093012767,7.141102354991286,0.043350985719695485,0.037332717806160216,0.00880697550611141,0.0016666554519886745,3.3483192317086635e-06,1.1982206235238881e-05,1.370430422434647e-11,0.24008878015045892,45.76726874070609,46.00735752085655,veteran,Charlie Whitehurst,QB,4.0,4.1,0.0,0.0,0.0,0.0,2.0,1.0,0.0,32.0,16.0,150.0,0.0,1.0,5.0,0.0,0.0,0.0,0.0,0.0,0.0,0.0,0.0,0.0,0.0,0.0,0.0,0.0,0.0,16,87.03999999999999,10.724044943820225,0.39536516853932585,0.4375,33.07049965776865,0.278125,1.0,0.4375,0.0,0.5625,0.0,9.0,7.0,0.0,0.0,10.0,0.0,20.0,90.0,0.0,185.0,1326.0,7.0,2.0,,3
00-0025430,2015,veteran,QB,6.287413699402432,25.97624125906882,163.32337515125198,1164.6330434787058,6.638154111524959,3.994526649725341,12.234615685217621,33.69784905157693,0.35309921006143175,1.2328594994996336,7.13084114506054,0.04064423788314096,0.0656880856416695,0.01698963770322252,0.003579973505085238,8.265257084442433e-07,4.883016318706124e-06,1.3704569469658952e-11,0.6183082889313222,68.17154605232439,68.7898543412557,veteran,Drew Stanton,QB,6.0,-1.1400000000000001,0.0,0.0,0.0,0.0,13.0,-13.0,0.0,25.0,11.0,104.0,0.0,2.0,2.0,0.0,0.0,0.0,0.0,0.0,0.0,0.0,0.0,0.0,0.0,0.0,0.0,0.0,0.0,16,95.74,10.637777777777778,0.5625,0.5625,31.318275154004105,0.309375,1.0,0.5625,0.125,0.3125,2.0,7.0,9.0,0.0,0.0,0.0,0.0,25.0,63.0,0.0,240.0,1711.0,7.0,5.0,,3
00-0026143,2015,veteran,QB,13.937111106120106,38.30977975513754,533.9276568983427,3852.1515403634653,23.557463434581845,13.030701905401864,29.81899254439447,125.93355487730807,0.8314877865339918,2.7663573658262477,7.214744339600481,0.04412107732240414,0.37595261151647347,0.16034240385918255,0.054093778747481024,1.091171765415592e-05,2.5570830072532086e-05,1.3704080239442565e-11,10.100266826312845,234.3040790173445,244.40434584365732,veteran,Matt Ryan,QB,16.0,241.94,0.0,0.0,0.0,0.0,36.0,63.0,0.0,614.0,407.0,4591.0,21.0,16.0,30.0,5.0,0.0,0.0,8.0,8.0,0.0,0.0,0.0,0.0,0.0,0.0,5.0,2.0,0.0,16,296.76,18.062625,1.0,1.0,30.29158110882957,1.0,1.0,1.0,0.0,0.0,0.0,0.0,16.0,0.0,0.0,0.0,0.0,29.0,145.0,0.0,628.0,4694.0,28.0,14.0,,3
00-0026158,2015,veteran,QB,13.931873690026478,34.94478600477213,486.84634474349036,3412.674269719164,20.842537408326706,12.563517614415739,28.20086876260084,67.96049279295976,0.9454049444122313,2.6571789972438844,7.00975637707054,0.042811325654110076,0.23951970688574892,0.08463447818145445,0.024199198231460193,5.2947818645057e-07,3.669332852108591e-06,1.3704653906346286e-11,5.779997996721449,201.90420614452347,207.68420414124492,veteran,Joe Flacco,QB,10.0,169.94,0.0,0.0,0.0,0.0,13.0,23.0,3.0,413.0,266.0,2791.0,14.0,12.0,16.0,2.0,0.0,0.0,8.0,8.0,0.0,0.0,0.0,0.0,0.0,0.0,5.0,2.0,0.0,16,267.44,15.4608125,1.0,1.0,30.622861054072555,1.0,1.0,1.0,0.0,0.0,0.0,0.0,16.0,0.0,0.0,0.0,0.0,39.0,70.0,2.0,554.0,3986.0,27.0,12.0,,3
00-0026197,2015,veteran,QB,4.55668034324898,29.252630390696282,133.29488588961348,920.809189816008,5.181145649930127,3.4811278772976744,8.762514615585067,30.57400552647709,0.2590421268411839,0.9019961396397359,6.90806090324099,0.03886980070803939,0.10083189461693126,0.028308134439771898,0.006513488953569747,2.4556803016510482e-06,9.820539089119042e-06,1.3704363009928807e-11,0.7123834794297558,53.40235547218083,54.11473895161058,veteran,,,0.0,0.0,0.0,0.0,0.0,0.0,0.0,0.0,0.0,0.0,0.0,0.0,0.0,0.0,0.0,0.0,0.0,0.0,0.0,0.0,0.0,0.0,0.0,0.0,0.0,0.0,0.0,0.0,0.0,16,30.18,10.911764705882353,0.7144607843137255,0.1875,30.16563997262149,0.478125,1.0,0.9375,0.0,0.8125,0.0,13.0,3.0,0.0,0.0,0.0,0.0,4.0,25.0,0.0,78.0,492.0,3.0,1.0,,3
00-0026349,2015,veteran,QB,5.025392836216764,13.924303519779746,69.97509515760902,494.4743457700385,3.0234540329378765,1.8433428184337877,6.470844239494131,11.649970783667223,0.18816680828848892,1.047196491962034,7.066433345411033,0.04320757301048285,0.0023758698973046807,0.00039205268687259623,4.586368046469773e-05,2.0856948000581885e-08,4.605965260477754e-07,1.3705267129803337e-11,0.015359550700070626,28.38570926985906,28.401068820559132,veteran,,,0.0,0.0,0.0,0.0,0.0,0.0,0.0,0.0,0.0,0.0,0.0,0.0,0.0,0.0,0.0,0.0,0.0,0.0,0.0,0.0,0.0,0.0,0.0,0.0,0.0,0.0,0.0,0.0,0.0,16,-2.3600000000000003,3.3102399999999994,0.4225,0.4375,30.198494182067076,0.39062500000000006,1.0,0.4375,0.0,0.5625,0.0,9.0,7.0,0.0,0.0,0.0,0.0,10.0,-10.0,0.0,16.0,66.0,0.0,1.0,,3
00-0026498,2015,veteran,QB,13.947822468348422,37.57773513425602,524.1275784152219,3720.2534673140453,21.05313305959559,12.79816051166477,33.052222232908626,76.11728703192598,1.1399448445232163,2.834214310295623,7.0979922074751105,0.0401679551441519,0.33224876982202817,0.1335897115181969,0.042785373034664634,9.009758671752646e-07,5.160864245521451e-06,1.3704553117121206e-11,8.622721342505631,216.20931905735532,224.83204039986094,veteran,Matthew Stafford,QB,16.0,296.78000000000003,1.0,1.0,-6.0,0.0,44.0,159.0,1.0,592.0,398.0,4262.0,32.0,13.0,44.0,2.0,0.0,0.0,6.5,6.5,0.0,0.0,0.0,0.0,0.0,0.0,3.0,1.0,1.0,16,257.08,17.114125,1.0,1.0,27.564681724845997,1.0,1.0,1.0,0.0,0.0,0.0,0.0,16.0,0.0,0.0,0.0,0.0,43.0,93.0,2.0,602.0,4257.0,22.0,12.0,,3
00-0026544,2015,veteran,QB,1.0006083552273748,12.711969901816,12.719703295156,90.02307891883218,0.5425854787165516,0.3147502455640307,1.8380310102863209,6.8821827123605415,0.054753274143174505,0.19879043855033576,7.077451166106631,0.042657086106967806,0.0014749822863703787,0.00022984792817438553,2.4788668523955182e-05,2.774690799659548e-06,1.0621118580441418e-05,1.370433985332494e-11,0.001889186509491969,5.760921619485862,5.762810805995354,veteran,Chase Daniel,QB,2.0,-0.04000000000000001,0.0,0.0,0.0,0.0,2.0,-2.0,0.0,2.0,2.0,4.0,0.0,0.0,0.0,0.0,0.0,0.0,0.0,0.0,0.0,0.0,0.0,0.0,0.0,0.0,0.0,0.0,0.0,16,7.780000000000001,3.5381818181818177,0.22386363636363635,0.125,28.90075290896646,0.171875,1.0,0.3125,0.0,0.875,0.0,14.0,2.0,0.0,0.0,0.0,0.0,4.0,15.0,0.0,28.0,157.0,0.0,0.0,,3
00-0026625,2015,veteran,QB,10.523719029920684,29.76771056183288,313.26702211673165,2264.5045613357665,11.973239459735455,8.641961318969493,18.4442392483619,40.35872032074859,0.5289247136352208,2.0498892290166952,7.228672032040295,0.03822055503586939,0.13576164547271308,0.04074067503741584,0.010019931982740229,1.7538919574065061e-07,1.8058947982950228e-06,1.3704863395617954e-11,2.2827567886689373,124.2988595102863,126.58161629895524,veteran,Brian Hoyer,QB,11.0,167.64,0.0,0.0,0.0,0.0,15.0,44.0,0.0,369.0,224.0,2606.0,19.0,7.0,25.0,2.0,0.0,0.0,1.0,1.0,0.0,0.0,0.0,0.0,0.0,0.0,1.0,0.0,0.0,16,159.94,11.505280898876402,0.780196629213483,0.875,29.83436002737851,0.5562500000000001,1.0,0.875,0.0625,0.0625,1.0,2.0,14.0,1.0,0.0,0.0,0.0,24.0,39.0,0.0,438.0,3326.0,12.0,13.0,,3
00-0026898,2015,veteran,QB,7.286107862715699,31.20504706108224,227.36333874816472,1640.2936495419885,9.786929974402964,6.831187124654907,16.612600841653446,41.68833154292216,0.49877293248857857,1.531119358006668,7.214415739024808,0.043045330123531025,0.16680177426330353,0.05276208995869771,0.01364391741760593,1.1304858285331163e-06,5.969783282437018e-06,1.3704510092308498e-11,1.9908767264449385,95.19632366319193,97.18720038963687,veteran,Mark Sanchez,QB,3.0,32.839999999999996,0.0,0.0,0.0,0.0,6.0,22.0,0.0,91.0,59.0,616.0,4.0,4.0,9.0,1.0,0.0,0.0,0.0,0.0,0.0,0.0,0.0,0.0,0.0,0.0,0.0,0.0,0.0,16,144.92,13.59361111111111,0.6796875000000001,0.5625,28.804928131416837,0.45,1.0,0.9375,0.0,0.4375,0.0,7.0,9.0,0.0,0.0,0.0,0.0,34.0,87.0,1.0,309.0,2418.0,14.0,11.0,,3
00-0026993,2015,veteran,QB,3.091720558020882,31.879699320516487,98.56312177276516,690.4606389612627,4.2029072302569555,2.6317888484750207,7.597265083468595,27.529652708750362,0.22579451218596933,0.6221807756971176,7.005263495540479,0.04264178279525941,0.1608976730118124,0.05040447650738631,0.012916531001102885,1.0127132923016704e-05,2.4375371584673997e-05,1.3704094386865854e-11,0.811218439714387,42.0298475751249,42.841066014839285,veteran,Josh Freeman,QB,1.0,10.360000000000001,0.0,0.0,0.0,0.0,8.0,24.0,0.0,28.0,15.0,149.0,1.0,1.0,1.0,0.0,0.0,0.0,0.0,0.0,0.0,0.0,0.0,0.0,0.0,0.0,0.0,0.0,0.0,16,0.0,13.224166666666667,0.75,0.0,27.633127994524298,0.22499999999999998,0.0,1.0,0.0,1.0,0.0,16.0,0.0,0.0,0.0,0.0,0.0,0.0,0.0,0.0,0.0,0.0,0.0,0.0,,3
00-0027253,2015,veteran,QB,0.7786944308052952,28.730692045414646,22.37242988894638,159.19465400920478,0.9527918954440184,0.5609703552583034,1.8284129398049378,5.052034699991526,0.05665863685253601,0.15996072899308786,7.115662214583969,0.04258776986556866,0.10661894485714726,0.030287687267297463,0.007053640613676417,2.0817974849244063e-06,8.832986181432555e-06,1.3704394326232552e-11,0.1293980584008376,9.582246864755849,9.711644923156687,veteran,,,0.0,0.0,0.0,0.0,0.0,0.0,0.0,0.0,0.0,0.0,0.0,0.0,0.0,0.0,0.0,0.0,0.0,0.0,0.0,0.0,0.0,0.0,0.0,0.0,0.0,0.0,0.0,0.0,0.0,16,0.0,11.656363636363638,0.2897727272727273,0.0,27.783709787816566,0.103125,0.0,0.3125,0.0,1.0,0.0,16.0,0.0,0.0,0.0,0.0,0.0,0.0,0.0,0.0,0.0,0.0,0.0,0.0,,3
00-0027659,2015,veteran,QB,1.9682059032052852,13.72239620271119,27.008501212297954,189.0027434148481,1.2111939788795985,0.6870596321325285,2.4557217560037756,8.825582103322757,0.07493657611256885,0.39231657844608664,6.997898251710032,0.04484491639721562,0.0020869417368569276,0.0003390397694876743,3.879394912015431e-05,3.576215097822962e-07,2.852552348554013e-06,1.3704728309335912e-11,0.005270315661323222,11.578310897962778,11.583581213624102,veteran,Jimmy Clausen,QB,4.0,33.160000000000004,0.0,0.0,0.0,0.0,11.0,36.0,0.0,125.0,72.0,739.0,2.0,4.0,7.0,0.0,0.0,0.0,0.0,0.0,0.0,0.0,0.0,0.0,0.0,0.0,0.0,0.0,0.0,16,15.82,3.955,0.25,0.25,26.94318959616701,0.1375,1.0,0.25,0.0625,0.6875,1.0,12.0,4.0,0.0,0.0,0.0,0.0,3.0,9.0,0.0,48.0,223.0,2.0,1.0,,3
00-0027688,2015,veteran,QB,2.9653795595398824,19.89291373988035,58.990039783931266,429.7051819122568,2.5231752672218972,1.488069863579127,5.469130998825938,18.237934616420304,0.17225462169349218,0.5940991444687149,7.284368403313188,0.04277290329797682,0.018514989962966907,0.0039531045727349235,0.0006593054525527613,1.6037315158941293e-06,7.47143562250562e-06,1.3704443792202445e-11,0.07643582706896919,25.973891521085164,26.050327348154134,veteran,Colt McCoy,QB,2.0,8.82,0.0,0.0,0.0,0.0,3.0,-3.0,0.0,11.0,7.0,128.0,1.0,0.0,1.0,0.0,0.0,0.0,0.0,0.0,0.0,0.0,0.0,0.0,0.0,0.0,0.0,0.0,0.0,16,65.38000000000001,9.081463414634147,0.27134146341463417,0.3125,28.98836413415469,0.25625,1.0,0.3125,0.0,0.6875,0.0,11.0,5.0,0.0,0.0,0.0,0.0,16.0,66.0,1.0,128.0,1057.0,4.0,3.0,,3
00-0027854,2015,veteran,QB,3.2350213732196478,33.47697920409082,108.29874323606347,756.6528403179424,4.877935863120041,2.5846207131934587,7.455388940070889,22.752731764380542,0.22368182936139136,0.6446632793238198,6.9867185685491595,0.04504148171403423,0.19728175268725487,0.0654736282795582,0.017697000644156722,3.0985227037102557e-06,1.1400687316022511e-05,1.3704318924397961e-11,1.0704892635174181,46.93665323276971,48.00714249628712,veteran,Sam Bradford,QB,14.0,202.9,0.0,0.0,0.0,0.0,26.0,39.0,0.0,532.0,346.0,3725.0,19.0,14.0,28.0,3.0,0.0,0.0,8.0,8.0,0.0,0.0,0.0,0.0,0.0,0.0,5.0,2.0,0.0,16,0.0,15.904666666666666,0.7375,0.0,27.813826146475016,0.28125,0.0,1.0,0.0,1.0,0.0,16.0,0.0,0.0,0.0,0.0,0.0,0.0,0.0,0.0,0.0,0.0,0.0,0.0,,3
00-0027939,2015,veteran,QB,12.444581285532207,33.06757938574715,411.5121795817196,2937.9019018070244,17.987127388444698,10.801005469162162,70.85695977213219,360.3011266247633,2.666473396641922,2.547754644396548,7.1392829849975445,0.0437098299416743,0.20530484505958702,0.06897267486913222,0.018850063703771527,0.00526761862294743,0.0013510214059970944,1.3702907698434855e-11,4.40237187302361,214.7960184412702,219.19839031429382,veteran,Cam Newton,QB,16.0,393.08,0.0,0.0,0.0,0.0,132.0,636.0,10.0,495.0,296.0,3837.0,35.0,10.0,33.0,4.0,0.0,1.0,3.0,4.0,0.0,0.0,0.0,1.0,0.0,0.0,3.0,0.0,0.0,16,250.98,18.57422818791946,0.9354026845637585,0.875,26.308008213552363,0.93125,1.0,1.0,0.0625,0.0625,1.0,2.0,14.0,0.0,0.0,0.0,0.0,103.0,539.0,5.0,448.0,3127.0,18.0,12.0,,3
00-0027946,2015,veteran,QB,5.607693740657422,24.881965813456446,139.53044394737168,983.5750984726227,5.859387118992639,4.1024491405471615,18.437851155722957,110.00951951753794,0.6006198892705369,1.129956946635844,7.049179165828564,0.04199361052131886,0.04985952714811612,0.012307798018986658,0.0024587397675287564,0.0006400686700044379,0.00034869111157511594,1.3703308167069565e-11,0.41722255905147027,66.92041152788647,67.33763408693794,veteran,,,0.0,0.0,0.0,0.0,0.0,0.0,0.0,0.0,0.0,0.0,0.0,0.0,0.0,0.0,0.0,0.0,0.0,0.0,0.0,0.0,0.0,0.0,0.0,0.0,0.0,0.0,0.0,0.0,0.0,16,63.92,11.279473684210526,0.4917763157894736,0.4375,27.211498973305954,0.4750000000000001,1.0,0.6875,0.0,0.5625,0.0,9.0,7.0,0.0,0.0,0.0,0.0,22.0,142.0,1.0,146.0,993.0,5.0,7.0,,3
00-0027948,2015,veteran,QB,1.1963211387932176,22.30905530594193,26.68879444900532,185.53374866327243,1.1373117147703518,0.7601400373475494,2.4817959987259997,8.821271818254967,0.07423818192180207,0.24061169373467622,6.951747071894706,0.042613828696662574,0.026419116909641948,0.0059247556987293065,0.0010527933234924032,3.918338209114528e-06,1.325395437232138e-05,1.370427441796436e-11,0.044785043171766084,11.296649616804162,11.341434659975928,veteran,Blaine Gabbert,QB,8.0,133.24,0.0,0.0,0.0,0.0,32.0,185.0,1.0,282.0,178.0,2031.0,10.0,7.0,25.0,1.0,0.0,0.0,3.5,3.5,0.0,0.0,0.0,0.0,0.0,0.0,2.0,1.0,0.0,16,6.02,7.222033898305084,0.3866525423728813,0.0625,25.87816563997262,0.184375,1.0,0.625,0.0,0.9375,0.0,15.0,1.0,0.0,0.0,0.0,0.0,1.0,5.0,0.0,7.0,38.0,1.0,0.0,,3
00-0027950,2015,veteran,QB,3.5122226543217034,26.698671970936598,93.7716805366274,647.098907921176,3.71569797189069,2.6372609316804154,10.520275274343508,42.715056709067454,0.38061525603887003,0.7238473028379879,6.900792480395165,0.03962494807202833,0.06394553341892871,0.01646093490295901,0.0034502565210330284,5.057830707568158e-05,6.841093966911981e-05,1.3703789458311269e-11,0.3360868461160189,40.57972894251296,40.915815788628976,veteran,,,0.0,0.0,0.0,0.0,0.0,0.0,0.0,0.0,0.0,0.0,0.0,0.0,0.0,0.0,0.0,0.0,0.0,0.0,0.0,0.0,0.0,0.0,0.0,0.0,0.0,0.0,0.0,0.0,0.0,16,12.48,11.032258064516128,0.6542338709677419,0.125,27.515400410677618,0.38749999999999996,1.0,1.0,0.0,0.875,0.0,14.0,2.0,0.0,0.0,0.0,0.0,4.0,16.0,1.0,44.0,222.0,0.0,2.0,,3
00-0027973,2015,veteran,QB,13.949368822045983,33.42551276267977,466.2648055926253,3316.905022781424,21.32838283159339,14.21738288458698,39.611687047394405,109.6037950136005,1.4301360230939129,2.7687903824307334,7.1137795154099575,0.04574306826457745,0.21167203408986382,0.07179582066371899,0.019791770703859925,5.382952531139244e-06,1.6249531245876266e-05,1.3704214207898657e-11,5.007531359920085,203.55858134351863,208.5661127034387,veteran,Andy Dalton,QB,13.0,249.70000000000002,0.0,0.0,0.0,0.0,57.0,142.0,3.0,386.0,255.0,3250.0,25.0,7.0,20.0,2.0,0.0,0.0,5.5,5.5,0.0,0.0,0.0,0.0,0.0,0.0,4.0,1.0,0.0,16,228.12,15.785062499999999,1.0,1.0,27.84120465434634,1.0,1.0,1.0,0.0,0.0,0.0,0.0,16.0,1.0,1.0,18.0,1.0,60.0,169.0,4.0,481.0,3398.0,19.0,17.0,,3
00-0027974,2015,veteran,QB,13.75565902804967,30.192525921661705,415.31809177392955,2992.2652241351384,18.206580362650886,9.428464169443597,71.45287891342177,409.98580041892353,2.0478616190935384,2.863331052087986,7.204755302988151,0.043837677007726616,0.1427433046590742,0.04336447450676831,0.010792470336988692,0.006168140420157145,0.0014956526484285716,1.3702877607880085e-11,3.2709110679657094,221.21908972939949,224.49000079736518,veteran,Colin Kaepernick,QB,9.0,112.2,0.0,0.0,0.0,0.0,45.0,256.0,1.0,244.0,144.0,1615.0,6.0,5.0,28.0,1.0,0.0,0.0,2.0,2.0,0.0,0.0,0.0,0.0,0.0,0.0,2.0,0.0,0.0,16,254.16,15.87337620578778,0.9764871382636656,1.0,27.82751540041068,0.971875,1.0,1.0,0.0,0.0,0.0,0.0,16.0,0.0,0.0,0.0,0.0,104.0,639.0,1.0,478.0,3369.0,19.0,10.0,,3
00-0028012,2015,veteran,QB,1.1994903281239484,19.15719837653048,22.978874166600118,160.38932855603116,0.9893383132006874,0.6023193764161994,1.2657260050821093,2.1674606391424174,0.0381164608613232,0.23923476067985225,6.979860170397629,0.0430542552271205,0.012119100369927025,0.0024468445615236363,0.00037884603569088694,8.095453063824655e-09,2.5095401203189275e-07,1.3705446574813911e-11,0.019848498838227,9.135262949934075,9.155111448772303,veteran,Ryan Mallett,QB,7.0,70.94,0.0,0.0,0.0,0.0,5.0,15.0,1.0,244.0,136.0,1336.0,5.0,6.0,6.0,0.0,0.0,0.0,0.0,0.0,0.0,0.0,0.0,0.0,0.0,0.0,0.0,0.0,0.0,16,19.799999999999997,5.027142857142857,0.1875,0.1875,27.238877481177276,0.13125,1.0,0.1875,0.0,0.8125,0.0,13.0,3.0,0.0,0.0,0.0,0.0,6.0,-2.0,0.0,75.0,400.0,2.0,2.0,,3
00-0028595,2015,veteran,QB,0.19719208622810314,27.930532407553738,5.507679954907165,39.62374176987791,0.23491003135778057,0.15363121185407652,0.4727326550559302,2.566111227685485,0.015045578441719271,0.03961564884528284,7.194270926104636,0.04265135833618715,0.09811545245905975,0.027390014840636256,0.006265485345405865,7.209955497899469e-05,8.588524908016305e-05,1.3703722240193538e-11,0.029959861571196757,2.4849806682463838,2.5149405298175807,veteran,Scott Tolzien,QB,2.0,-0.13999999999999999,0.0,0.0,0.0,0.0,3.0,-3.0,0.0,1.0,1.0,4.0,0.0,0.0,1.0,0.0,0.0,0.0,0.0,0.0,0.0,0.0,0.0,0.0,0.0,0.0,0.0,0.0,0.0,16,0.0,11.726666666666667,0.1875,0.0,27.991786447638603,0.056249999999999994,0.0,0.1875,0.0,1.0,0.0,16.0,0.0,0.0,0.0,0.0,0.0,0.0,0.0,0.0,0.0,0.0,0.0,0.0,,3
00-0028957,2015,veteran,QB,6.301613676112133,29.78869405646396,187.7168418597335,1334.200629962546,8.26692615650231,5.169771162251653,11.93548043076411,32.55140238572041,0.3523683436048369,1.2971530803962859,7.107516921467774,0.0440393417798897,0.1258824186023304,0.0371069182629079,0.008968000664055458,6.936692427662771e-07,4.363709730853159e-06,1.3704602694460407e-11,1.257083936344067,78.87123163941627,80.12831557576033,veteran,Austin Davis,QB,3.0,19.18,0.0,0.0,0.0,0.0,7.0,33.0,0.0,94.0,56.0,547.0,1.0,3.0,11.0,2.0,0.0,0.0,0.0,0.0,0.0,0.0,0.0,0.0,0.0,0.0,0.0,0.0,0.0,16,111.14,12.348888888888888,0.5625,0.5625,26.247775496235455,0.309375,1.0,0.5625,0.0,0.4375,0.0,7.0,9.0,0.0,0.0,0.0,0.0,16.0,36.0,0.0,284.0,2001.0,12.0,9.0,,3
00-0028986,2015,veteran,QB,1.811310627768719,30.982847069429727,56.11956017539097,392.7630971974303,2.3414928348439146,1.4291685219575603,4.17787943567651,16.55255232441256,0.12809064026389236,0.37067308757608763,6.99868452229355,0.04172329269021399,0.14066790461620754,0.04257967736869447,0.010560282055561214,1.1557864088604366e-05,2.6532367795843107e-05,1.3704069332232143e-11,0.4088297285449144,23.900611082230185,24.3094408107751,veteran,Case Keenum,QB,5.0,43.620000000000005,0.0,0.0,0.0,0.0,12.0,5.0,0.0,125.0,76.0,828.0,4.0,1.0,4.0,2.0,0.0,0.0,0.0,0.0,0.0,0.0,0.0,0.0,0.0,0.0,0.0,0.0,0.0,16,22.900000000000002,12.692857142857145,0.3821428571428571,0.125,27.537303216974674,0.21875,1.0,0.5,0.0,0.875,0.0,14.0,2.0,0.0,0.0,0.0,0.0,10.0,35.0,0.0,77.0,435.0,2.0,2.0,,3
00-0029151,2015,veteran,QB,0.0,12.077869108703622,0.0,0.0,0.0,0.0,0.0,0.0,0.0,0.0,7.078119164972099,0.04423544140254914,9.357622968839299e-14,9.357622968839299e-14,9.357622968839299e-14,2.3599534873612555e-11,5.9262594036056716e-09,1.3706553544212506e-11,0.0,0.0,0.0,veteran,,,0.0,0.0,0.0,0.0,0.0,0.0,0.0,0.0,0.0,0.0,0.0,0.0,0.0,0.0,0.0,0.0,0.0,0.0,0.0,0.0,0.0,0.0,0.0,0.0,0.0,0.0,0.0,0.0,0.0,16,1.76,2.724137931034482,0.14008620689655174,0.0625,26.926762491444215,0.090625,1.0,0.1875,0.0,0.9375,0.0,15.0,1.0,0.0,0.0,0.0,0.0,1.0,2.0,0.0,8.0,39.0,0.0,0.0,,3
00-0029263,2015,veteran,QB,13.939868314100679,31.42310079963624,438.03388716764096,3261.7598955341145,21.373358974814444,9.673835814316941,82.9488469297355,512.4234703151567,2.718164098894265,2.716668528705056,7.446364290728491,0.04879384814954875,0.1976221979597023,0.06562079143680065,0.017745178740675212,0.019250841701929828,0.0031259442862127777,1.3702659329258109e-11,4.955393188358927,258.7341546594597,263.68954784781863,veteran,Russell Wilson,QB,16.0,337.26,0.0,0.0,0.0,0.0,103.0,553.0,1.0,483.0,329.0,4024.0,34.0,8.0,45.0,3.0,0.0,0.0,1.0,1.0,0.0,0.0,0.0,0.0,0.0,0.0,1.0,0.0,0.0,16,333.09999999999997,19.156375,1.0,1.0,26.754277891854894,1.0,1.0,1.0,0.0,0.0,0.0,0.0,16.0,1.0,1.0,17.0,0.0,118.0,849.0,6.0,452.0,3475.0,20.0,7.0,,3
00-0029531,2015,veteran,QB,1.554847985304634,25.3228285166874,39.37314890138614,271.3754793641651,1.5559497878386839,1.1298368659251454,1.652568692859299,5.958149526299391,0.050675269486880364,0.3120720320164429,6.892399692080794,0.03951804291131783,0.0486226254136157,0.011953728207881854,0.0023766521711481615,1.747658619781592e-07,1.8017739328275528e-06,1.370486407067254e-11,0.11087527617991838,15.094867099589385,15.205742375769303,veteran,Ryan Lindley,QB,1.0,6.32,0.0,0.0,0.0,0.0,0.0,0.0,0.0,10.0,6.0,58.0,1.0,0.0,0.0,0.0,0.0,0.0,0.0,0.0,0.0,0.0,0.0,0.0,0.0,0.0,0.0,0.0,0.0,16,23.48,5.874901960784315,0.2536764705882353,0.1875,26.193018480492814,0.159375,1.0,0.375,0.0,0.8125,0.0,13.0,3.0,0.0,0.0,0.0,0.0,0.0,0.0,0.0,93.0,562.0,2.0,4.0,,3
00-0029567,2015,veteran,QB,7.01184281488498,32.89793737290952,230.67516579277165,1679.4103441121076,11.12748187505036,5.595854299551857,18.333462335285905,69.89872739680553,0.5736985951947721,1.4491439461428475,7.28041242905539,0.04823875095876943,0.21823475603185344,0.07474894684428553,0.020787561762466766,1.8039289603803925e-05,3.530472885328387e-05,1.3703984926981129e-11,2.6084356516512592,108.02840908414552,110.63684473579679,veteran,Nick Foles,QB,11.0,96.08,0.0,0.0,0.0,0.0,17.0,20.0,1.0,337.0,190.0,2052.0,7.0,10.0,14.0,2.0,0.0,0.0,0.0,0.0,0.0,0.0,0.0,0.0,0.0,0.0,0.0,0.0,0.0,16,126.82000000000001,17.521069518716576,0.6233288770053474,0.5,26.611909650924023,0.5843750000000001,1.0,0.8125,0.5,0.0,8.0,8.0,8.0,0.0,0.0,0.0,0.0,16.0,68.0,0.0,311.0,2163.0,13.0,10.0,,3
00-0029604,2015,veteran,QB,3.986712110783774,29.71419158904214,118.46192747018365,860.1650635640407,5.276718835195689,3.7693319429556427,5.48796291571176,19.213922920044205,0.16450357197094234,0.82036502504161,7.261109809145562,0.044543584153008284,0.13745654515212286,0.04137338785603199,0.010205245729627551,5.00322271683809e-07,3.5383725894534916e-06,1.3704664645288725e-11,0.8768092608562367,49.242497671179954,50.11930693203619,veteran,Kirk Cousins,QB,16.0,301.94,0.0,0.0,0.0,0.0,26.0,48.0,5.0,543.0,379.0,4166.0,29.0,11.0,26.0,3.0,0.0,0.0,8.5,8.5,0.0,0.0,0.0,0.0,0.0,0.0,7.0,1.0,0.0,16,95.39999999999999,13.021714285714282,0.3410714285714285,0.375,27.033538672142367,0.32812500000000006,1.0,0.375,0.0,0.625,0.0,10.0,6.0,0.0,0.0,0.0,0.0,7.0,20.0,0.0,204.0,1710.0,10.0,9.0,,3
00-0029665,2015,veteran,QB,8.286286586777694,29.12970544895304,241.37708753844467,1758.8221532151783,9.357316732993525,6.070013992816143,40.43583217142971,215.36135766702319,1.1640567063691054,1.7426816718803764,7.286616021228804,0.03876638345594075,0.12737539784269633,0.03765013063367056,0.009123896043985611,0.002929645731909719,0.0009261885434670204,1.370301936829445e-11,1.7104330240528547,120.67723773610516,122.38767076015802,veteran,,,0.0,0.0,0.0,0.0,0.0,0.0,0.0,0.0,0.0,0.0,0.0,0.0,0.0,0.0,0.0,0.0,0.0,0.0,0.0,0.0,0.0,0.0,0.0,0.0,0.0,0.0,0.0,0.0,0.0,16,88.35999999999999,14.561171171171171,0.7263513513513514,0.5625,25.54962354551677,0.69375,1.0,0.9375,0.3125,0.125,5.0,7.0,9.0,0.0,0.0,0.0,0.0,38.0,176.0,1.0,214.0,1694.0,4.0,6.0,,3
00-0029668,2015,veteran,QB,13.92728317061796,38.37933577379372,534.5198772218531,3851.712051014427,26.592986655054712,13.049004355505927,51.60797048592357,232.5042866807407,1.8656596566494676,2.9227005601342855,7.205928563468126,0.04975116508907163,0.37669813631814586,0.16082124109665372,0.05430354633402702,0.00026963030110570865,0.00020021078283321853,1.3703472137086715e-11,10.126625601513451,262.94140543748637,273.06803103899983,veteran,Andrew Luck,QB,7.0,132.84,0.0,0.0,0.0,0.0,33.0,196.0,0.0,293.0,162.0,1881.0,15.0,12.0,15.0,1.0,0.0,0.0,2.0,2.0,0.0,0.0,0.0,0.0,0.0,0.0,2.0,0.0,0.0,16,374.24,21.14375,1.0,1.0,25.968514715947983,1.0,1.0,1.0,0.0,0.0,0.0,0.0,16.0,0.0,0.0,0.0,0.0,64.0,273.0,3.0,616.0,4761.0,40.0,16.0,,3
00-0029677,2015,veteran,QB,4.221145928636746,26.280945969762296,110.93570808098441,775.0210815463919,4.635987458097863,3.203603402576098,5.829506649491845,17.07610060532155,0.17041253147052454,0.8370177792831535,6.986218368756587,0.0417898577319535,0.06284191962949005,0.016127751011801222,0.00336889291155688,2.2315725578020397e-07,2.107728892011075e-06,1.3704817725853707e-11,0.39583676381118893,44.193635979883915,44.589472743695104,veteran,Brandon Weeden,QB,6.0,66.42,0.0,0.0,0.0,0.0,16.0,47.0,1.0,140.0,97.0,1043.0,5.0,2.0,10.0,1.0,0.0,0.0,0.0,0.0,0.0,0.0,0.0,0.0,0.0,0.0,0.0,0.0,0.0,16,20.02,9.367591240875914,0.5634124087591241,0.25,31.88227241615332,0.428125,1.0,0.9375,0.0,0.75,0.0,12.0,4.0,0.0,0.0,0.0,0.0,6.0,-1.0,0.0,41.0,303.0,3.0,2.0,,3
00-0029701,2015,veteran,QB,13.943849829556282,35.517447938641595,495.2499603855017,3437.129831416017,21.092820457595167,12.185266843296894,46.35633284459368,237.7211264355036,1.3365632299497754,2.8140799653555506,6.940192037048446,0.04259025168053835,0.24571688649303808,0.08760268663401234,0.025246685497343442,0.0003016168149986049,0.0002151444185415804,1.370345087749164e-11,5.971295021170837,223.6492734929655,229.62056851413635,veteran,Ryan Tannehill,QB,16.0,268.32,1.0,1.0,9.0,0.0,32.0,141.0,1.0,586.0,363.0,4208.0,24.0,12.0,45.0,3.0,0.0,0.0,10.5,10.5,0.0,0.0,0.0,0.0,0.0,0.0,6.0,3.0,0.0,16,282.5,16.029687499999998,1.0,1.0,27.096509240246405,1.0,1.0,1.0,0.0,0.0,0.0,0.0,16.0,1.0,1.0,-4.0,0.0,56.0,311.0,1.0,590.0,4045.0,27.0,12.0,,3
00-0030024,2015,veteran,QB,0.0,24.308502918943926,0.0,0.0,0.0,0.0,0.0,0.0,0.0,0.0,7.068931409214329,0.043745905311185745,9.357622968839299e-14,9.357622968839299e-14,9.357622968839299e-14,2.3599534873612555e-11,5.9262594036056716e-09,1.3706553544212506e-11,0.0,0.0,0.0,veteran,,,0.0,0.0,0.0,0.0,0.0,0.0,0.0,0.0,0.0,0.0,0.0,0.0,0.0,0.0,0.0,0.0,0.0,0.0,0.0,0.0,0.0,0.0,0.0,0.0,0.0,0.0,0.0,0.0,0.0,16,0.0,6.029999999999999,0.125,0.0,24.550308008213552,0.0375,0.0,0.125,0.0,1.0,0.0,16.0,0.0,0.0,0.0,0.0,0.0,0.0,0.0,0.0,0.0,0.0,0.0,0.0,,3
00-0030419,2015,veteran,QB,1.0180221688719713,25.833669078550237,26.29924782526649,188.18262331182592,1.1604329225044379,0.7752804895162966,1.742571481139438,5.2436274002101655,0.052500629136351,0.2042036171923331,7.1554374696234895,0.04412418675296008,0.06501327895118694,0.016784516939353344,0.00352955949985438,6.843241204910704e-07,4.325896632043995e-06,1.3704605266127133e-11,0.09900911685791396,11.049434923912651,11.148444040770565,veteran,Matt McGloin,QB,2.0,9.68,0.0,0.0,0.0,0.0,0.0,0.0,0.0,32.0,23.0,142.0,2.0,1.0,2.0,1.0,0.0,0.0,0.0,0.0,0.0,0.0,0.0,0.0,0.0,0.0,0.0,0.0,0.0,16,5.46,10.029056603773585,0.3596698113207547,0.0625,25.746748802190282,0.16562500000000002,1.0,0.4375,0.0,0.9375,0.0,15.0,1.0,0.0,0.0,0.0,0.0,2.0,3.0,0.0,19.0,129.0,1.0,2.0,,3
00-0030520,2015,veteran,QB,5.500543810101362,31.04012607668326,170.737573355866,1186.7475413411955,7.804859045325241,4.373105177841795,11.480495396314202,33.95226117448211,0.3315618162477783,1.1029292888409945,6.9507110708881505,0.045712603804305446,0.13743572673113086,0.04136559972431445,0.010202960871202755,1.6321525015056236e-06,7.556127298390908e-06,1.3704440461600025e-11,1.2095861648503308,73.12186591651809,74.33145208136843,veteran,,,0.0,0.0,0.0,0.0,0.0,0.0,0.0,0.0,0.0,0.0,0.0,0.0,0.0,0.0,0.0,0.0,0.0,0.0,0.0,0.0,0.0,0.0,0.0,0.0,0.0,0.0,0.0,0.0,0.0,16,91.58,13.57986111111111,0.6119791666666666,0.375,25.71937029431896,0.45,1.0,0.8125,0.0,0.625,0.0,10.0,6.0,0.0,0.0,0.0,0.0,10.0,49.0,0.0,203.0,1417.0,10.0,6.0,,3
00-0030526,2015,veteran,QB,3.47870253263516,29.898486178811538,104.00793959218903,722.1763794789088,4.404031100067128,2.7052584669916935,11.318025045889312,37.8252258640968,0.36305227578605465,0.6996028647484822,6.943473568561529,0.04234322030928751,0.11471905146854075,0.03311215544151229,0.007836739025615385,2.8242475165658693e-05,4.7070656457042976e-05,1.3703899935923542e-11,0.6267216956532059,45.65429315707052,46.28101485272372,veteran,EJ Manuel,QB,4.0,38.84,0.0,0.0,0.0,0.0,17.0,64.0,1.0,84.0,52.0,561.0,3.0,3.0,6.0,1.0,0.0,0.0,0.0,0.0,0.0,0.0,0.0,0.0,0.0,0.0,0.0,0.0,0.0,16,58.72,13.911538461538461,0.4663461538461538,0.25,25.453798767967147,0.325,1.0,0.625,0.0,0.75,0.0,12.0,4.0,0.0,0.0,0.0,0.0,16.0,52.0,1.0,131.0,838.0,5.0,3.0,,3
00-0030533,2015,veteran,QB,0.0,11.203082320046494,0.0,0.0,0.0,0.0,0.0,0.0,0.0,0.0,7.102808329365674,0.043221091968402306,9.357622968839299e-14,9.357622968839299e-14,9.357622968839299e-14,2.3599534873612555e-11,5.9262594036056716e-09,1.3706553544212506e-11,0.0,0.0,0.0,veteran,,,0.0,0.0,0.0,0.0,0.0,0.0,0.0,0.0,0.0,0.0,0.0,0.0,0.0,0.0,0.0,0.0,0.0,0.0,0.0,0.0,0.0,0.0,0.0,0.0,0.0,0.0,0.0,0.0,0.0,16,0.0,0.3724137931034484,0.14008620689655174,0.0625,24.980150581793293,0.090625,1.0,0.1875,0.0,0.9375,0.0,15.0,1.0,0.0,0.0,0.0,0.0,3.0,0.0,0.0,1.0,0.0,0.0,0.0,,3
00-0030565,2015,veteran,QB,11.845796948970051,27.410745074696276,324.702120374833,2278.899140205343,12.550919676011066,10.545320878970982,46.186942962830244,195.12758828690323,1.5154266670256529,2.4145630782916254,7.01843011549972,0.03865364248783595,0.07930416414863725,0.0212289166942107,0.004645389809857117,0.0002510627879847856,0.00019125095664747823,1.370348566725978e-11,1.433060188625323,144.04519522857703,145.47825541720235,veteran,Geno Smith,QB,1.0,20.0,0.0,0.0,0.0,0.0,2.0,34.0,0.0,42.0,27.0,265.0,2.0,1.0,3.0,0.0,0.0,0.0,0.0,0.0,0.0,0.0,0.0,0.0,0.0,0.0,0.0,0.0,0.0,16,154.3,11.474960000000001,0.9230000000000002,0.875,24.892539356605067,0.78125,1.0,1.0,0.0,0.125,0.0,2.0,14.0,1.0,0.0,0.0,0.0,59.0,238.0,1.0,367.0,2525.0,13.0,13.0,,3
00-0031237,2015,veteran,QB,9.672064436186986,29.460964573266043,284.9483477048512,2041.7594872971283,11.676067506818564,7.775237328408727,36.81313021307012,154.15043800667593,1.0867696552015498,1.8721822678888254,7.1653669998184295,0.040976084265323086,0.12414715863276239,0.036478207261203884,0.00878817562994663,0.00021060304928126393,0.0001708565074627984,1.370351899039687e-11,1.9045040457772426,131.01547205844116,132.9199761042184,veteran,Teddy Bridgewater,QB,16.0,202.44,0.0,0.0,0.0,0.0,44.0,192.0,3.0,447.0,292.0,3231.0,14.0,9.0,44.0,3.0,0.0,0.0,2.0,2.0,0.0,0.0,0.0,0.0,0.0,0.0,2.0,0.0,0.0,16,182.66,14.050769230769232,0.8125,0.8125,22.806297056810404,0.446875,1.0,0.8125,0.0,0.1875,0.0,3.0,13.0,0.0,0.0,0.0,0.0,47.0,209.0,1.0,402.0,2919.0,14.0,12.0,,3
00-0031266,2015,veteran,QB,4.511043274642345,24.50062723614009,110.52338971810883,803.7512669957877,4.9601978910619104,3.164766399064568,7.10330105578887,19.30115465986845,0.21565312522331545,0.9198869825051816,7.27222779762514,0.044879169049311204,0.0540031636541302,0.013506709239423369,0.0027396906260449996,2.881634490191975e-07,2.483454818030935e-06,1.3704769253542564e-11,0.35974046347305794,47.04556969826639,47.40531016173945,veteran,Zach Mettenberger,QB,7.0,42.2,0.0,0.0,0.0,0.0,9.0,8.0,1.0,166.0,101.0,935.0,4.0,7.0,13.0,2.0,0.0,0.0,0.0,0.0,0.0,0.0,0.0,0.0,0.0,0.0,0.0,0.0,0.0,16,71.88,10.268571428571429,0.4375,0.4375,24.128678986995208,0.24062500000000003,1.0,0.4375,0.125,0.4375,2.0,9.0,7.0,0.0,0.0,0.0,0.0,5.0,4.0,0.0,179.0,1412.0,8.0,7.0,,3
00-0031280,2015,veteran,QB,12.33864503915095,33.516663520065734,413.5502140707507,2672.968508882724,16.574528553926033,9.557013850237054,33.83111187403689,108.307008083933,0.9666452063372223,2.5224919301689557,6.463467840027352,0.04007863613653079,0.1400545668360709,0.042348531595856775,0.01049207638572083,9.417246547450717e-06,2.326479502179194e-05,1.3704108165819076e-11,2.7713316282043734,165.6884150566177,168.45974668482208,veteran,Derek Carr,QB,16.0,278.78000000000003,0.0,0.0,0.0,0.0,33.0,138.0,0.0,573.0,350.0,3987.0,32.0,13.0,31.0,3.0,0.0,0.0,7.5,7.5,0.0,0.0,0.0,0.0,0.0,0.0,6.0,1.0,0.0,16,193.0,12.0625,1.0,1.0,24.42984257357974,0.55,1.0,1.0,0.0,0.0,0.0,0.0,16.0,1.0,0.0,0.0,0.0,29.0,92.0,0.0,599.0,3270.0,21.0,12.0,,3
00-0031407,2015,veteran,QB,10.576978324123267,30.932883919621386,327.1764427204566,2215.5337994262927,11.691581259754555,9.772623394286494,51.44659776185094,348.10244939764294,1.3748153971896577,2.0746434783388126,6.771678856228872,0.03573478934650555,0.11969199648344493,0.03487710390137704,0.00833320675586768,0.010573812160056798,0.0021183364568886434,1.3702774587338528e-11,2.141048885282232,154.75228059372154,156.89332947900377,veteran,Blake Bortles,QB,16.0,325.12,0.0,0.0,0.0,0.0,52.0,310.0,2.0,606.0,355.0,4428.0,35.0,18.0,51.0,5.0,0.0,0.0,9.0,9.0,0.0,0.0,0.0,0.0,0.0,0.0,6.0,2.0,0.0,16,169.22,12.087142857142856,0.875,0.875,23.709787816564,0.48125000000000007,1.0,0.875,0.0,0.125,0.0,2.0,14.0,0.0,0.0,0.0,0.0,56.0,419.0,0.0,475.0,2908.0,11.0,17.0,,3
00-0031409,2015,veteran,QB,1.8510325368954403,10.77260251738207,19.94043776671594,140.6188545392784,0.8523690160093695,0.5464694291208995,4.244428365043451,14.639917395844416,0.1374870320261905,0.3689607628371474,7.0519442042539175,0.04274575242435859,0.0005996032767607346,8.392567019442858e-05,7.765203680383118e-06,5.563443969634793e-06,1.6597064342137785e-05,1.3704207954953999e-11,0.0014280369088754494,9.492283793434103,9.493711830342978,veteran,Johnny Manziel,QB,9.0,98.5,0.0,0.0,0.0,0.0,37.0,230.0,0.0,223.0,129.0,1500.0,7.0,5.0,19.0,3.0,0.0,1.0,2.5,3.5,0.0,0.0,0.0,1.0,0.0,0.0,1.0,1.0,0.0,16,11.9,2.975,0.25,0.25,22.73511293634497,0.1375,1.0,0.25,0.0625,0.6875,1.0,12.0,4.0,0.0,0.0,0.0,0.0,9.0,29.0,1.0,35.0,175.0,0.0,2.0,,3
00-0031503,2015,rookie,QB,16.0,33.342468249555466,533.4794919928875,3594.8638023313138,18.876519858213218,15.294821218449686,91.65894162378989,437.68817233783466,3.880451543196944,3.0157068062827226,6.738522954091817,0.035383777898747956,0.16532379558536092,0.05216875277961545,0.013460117103708119,0.003869328561367434,0.0011076649466100466,1.3702966448934294e-11,4.41644775953422,249.73110196960573,254.14754972913994,rookie,Jameis Winston,QB,16.0,278.48,0.0,0.0,0.0,0.0,54.0,213.0,6.0,535.0,312.0,4042.0,22.0,15.0,27.0,2.0,0.0,0.0,3.5,3.5,0.0,0.0,0.0,0.0,0.0,0.0,2.0,1.0,0.0,16,0.0,,,0.0,21.650924024640656,0.0,0.0,0.0,0.0,1.0,0.0,16.0,0.0,0.0,0.0,0.0,0.0,0.0,0.0,0.0,0.0,0.0,0.0,0.0,,3
00-0031568,2015,rookie,QB,5.906397948096818,25.310318417414166,149.49281276629213,1007.3607502974097,5.289620484381594,4.285948905293805,14.307472192415027,68.32079057137162,0.6057178008467675,1.1132477807931176,6.738522954091817,0.035383777898747956,0.04321067779825803,0.010425758329801162,0.0020273240185201074,3.894174714058587e-05,5.78452423097085e-05,1.370383902987573e-11,0.37227833108748437,61.12090443946669,61.49318277055418,rookie,,,0.0,0.0,0.0,0.0,0.0,0.0,0.0,0.0,0.0,0.0,0.0,0.0,0.0,0.0,0.0,0.0,0.0,0.0,0.0,0.0,0.0,0.0,0.0,0.0,0.0,0.0,0.0,0.0,0.0,16,0.0,,,0.0,24.254620123203285,0.0,0.0,0.0,0.0,1.0,0.0,16.0,0.0,0.0,0.0,0.0,0.0,0.0,0.0,0.0,0.0,0.0,0.0,0.0,,3
00-0032148,2015,rookie,QB,6.885333776104557,26.171699736567536,180.2008881742552,1214.2878213099514,6.376188204314963,5.166347365547509,17.873194230363108,85.3477639817777,0.7566753761759564,1.297759245757927,6.738522954091817,0.035383777898747956,0.051265845854507296,0.012712508618422517,0.002553069231499569,5.587358281043318e-05,7.292420287718797e-05,1.3703770580108494e-11,0.5205725947729061,74.22288110228055,74.74345369705345,rookie,,,0.0,0.0,0.0,0.0,0.0,0.0,0.0,0.0,0.0,0.0,0.0,0.0,0.0,0.0,0.0,0.0,0.0,0.0,0.0,0.0,0.0,0.0,0.0,0.0,0.0,0.0,0.0,0.0,0.0,16,0.0,,,0.0,24.26009582477755,0.0,0.0,0.0,0.0,1.0,0.0,16.0,0.0,0.0,0.0,0.0,0.0,0.0,0.0,0.0,0.0,0.0,0.0,0.0,,3
00-0032245,2015,rookie,QB,5.660073969214519,24.170175956284666,136.8049837615015,921.863523311036,4.84067716085879,3.922189699567635,15.63818900411606,74.67520617877902,0.6620547169625777,1.066820224563993,6.738522954091817,0.035383777898747956,0.034075392464756736,0.007929210126361627,0.0014755719602341662,7.749873799355782e-05,8.995844651814831e-05,1.37037085482764e-11,0.2780952144500289,57.6990786472667,57.97717386171673,rookie,Sean Mannion,QB,1.0,1.24,0.0,0.0,0.0,0.0,0.0,0.0,0.0,7.0,6.0,31.0,0.0,0.0,0.0,0.0,0.0,0.0,0.0,0.0,0.0,0.0,0.0,0.0,0.0,0.0,0.0,0.0,0.0,16,0.0,,,0.0,23.351129363449694,0.0,0.0,0.0,0.0,1.0,0.0,16.0,0.0,0.0,0.0,0.0,0.0,0.0,0.0,0.0,0.0,0.0,0.0,0.0,,3
00-0032268,2015,rookie,QB,16.0,31.796505538727217,508.7440886196355,3428.183718921935,18.00128783901813,14.585658864435203,84.68273412498334,404.3755085004679,3.585108452006594,3.0157068062827226,6.738522954091817,0.035383777898747956,0.1330878002528373,0.03974805703307742,0.00973047785356082,0.002517044921170683,0.0008400805877242102,1.3703048224043462e-11,3.455168117435811,235.87797033360042,239.33313845103623,rookie,Marcus Mariota,QB,12.0,216.52,1.0,1.0,41.0,1.0,34.0,252.0,2.0,370.0,230.0,2818.0,19.0,10.0,38.0,6.0,0.0,1.0,5.0,6.0,0.0,0.0,0.0,1.0,0.0,0.0,2.0,2.0,0.0,16,0.0,,,0.0,21.83709787816564,0.0,0.0,0.0,0.0,1.0,0.0,16.0,0.0,0.0,0.0,0.0,0.0,0.0,0.0,0.0,0.0,0.0,0.0,0.0,,3
00-0007091,2016,veteran,QB,5.503664218550481,27.417379103846613,150.89604834027426,1064.5628392590945,6.5006222022848705,3.5166447301837733,7.294962963479173,10.006568190250638,0.21412465387803295,1.0887031049818954,7.0549418024419,0.04308013545607112,0.15889938934837222,0.0544596426265481,0.0115923976700479,0.00016690943951260036,7.882411436284189e-06,1.3703908904609197e-11,1.4527052786315218,61.65971145146518,63.1124167300967,veteran,,,0.0,0.0,0.0,0.0,0.0,0.0,0.0,0.0,0.0,0.0,0.0,0.0,0.0,0.0,0.0,0.0,0.0,0.0,0.0,0.0,0.0,0.0,0.0,0.0,0.0,0.0,0.0,0.0,0.0,16,92.1,9.287107438016529,0.4271694214876033,0.5,40.936344969199176,0.37812500000000004,1.0,0.5,0.0625,0.4375,1.0,8.0,8.0,0.0,0.0,0.0,0.0,16.0,15.0,0.0,256.0,1690.0,9.0,5.0,,4
00-0010346,2016,veteran,QB,9.467616317666616,36.90207129681079,349.3746523653827,2554.286940284096,17.11606733252842,10.045654502428201,11.138677849645353,1.7070524006761378,0.328813924277519,1.7718759130021753,7.311025350553405,0.04899058136200479,0.32622252551614295,0.1495449522008475,0.047417206256174765,2.7475483612013487e-05,9.235761520140471e-07,1.3704026023821997e-11,6.110430125360864,149.1442748963495,155.25470502171035,veteran,,,0.0,0.0,0.0,0.0,0.0,0.0,0.0,0.0,0.0,0.0,0.0,0.0,0.0,0.0,0.0,0.0,0.0,0.0,0.0,0.0,0.0,0.0,0.0,0.0,0.0,0.0,0.0,0.0,0.0,16,93.36,17.01566929133858,0.8375984251968505,0.625,40.440793976728266,0.7937500000000001,1.0,1.0,0.375,0.0,6.0,6.0,10.0,0.0,0.0,0.0,0.0,6.0,-6.0,0.0,331.0,2249.0,9.0,17.0,,4
00-0019596,2016,veteran,QB,13.596757132858333,39.12930211367059,532.0316176178193,3852.8716034201193,26.40652551330512,10.07120253400559,25.076711845597668,40.626256963916624,0.8519053083538067,2.583454756053909,7.241809463639433,0.04963337636124107,0.3574694385841134,0.17173508961556688,0.05804401605562444,0.00034276712254263235,1.8540759124545687e-05,1.3703862183319788e-11,9.946445037523613,243.60570915642074,253.55215419394435,veteran,Tom Brady,QB,12.0,272.06,0.0,0.0,0.0,0.0,28.0,64.0,0.0,432.0,291.0,3554.0,28.0,2.0,15.0,0.0,0.0,0.0,13.5,13.5,0.0,0.0,0.0,0.0,0.0,0.0,5.0,3.0,2.0,16,359.2,20.219125,1.0,1.0,39.08008213552361,1.0,1.0,1.0,0.0,0.0,0.0,0.0,16.0,1.0,1.0,36.0,0.0,34.0,53.0,3.0,624.0,4770.0,36.0,7.0,,4
00-0020245,2016,veteran,QB,4.090364199732893,19.462145716620785,79.60726408925052,557.0600505916077,3.407583011031408,1.874879595487504,13.505593853470597,73.48517705336701,0.38942633718405933,0.7865584997625384,6.997603258505003,0.042804925530552665,0.06555636987013325,0.01747935688785181,0.0025545996620358674,0.00861710898208797,0.0008633284469167448,1.370365234360237e-11,0.4368374237138131,40.274933605730915,40.711771029444726,veteran,,,0.0,0.0,0.0,0.0,0.0,0.0,0.0,0.0,0.0,0.0,0.0,0.0,0.0,0.0,0.0,0.0,0.0,0.0,0.0,0.0,0.0,0.0,0.0,0.0,0.0,0.0,0.0,0.0,0.0,16,30.740000000000002,7.041538461538463,0.4365384615384616,0.3125,36.18343600273785,0.40624999999999994,1.0,0.5625,0.125,0.5625,2.0,11.0,5.0,0.0,0.0,0.0,0.0,20.0,99.0,0.0,66.0,371.0,2.0,1.0,,4
00-0020531,2016,veteran,QB,12.839476724877247,40.70356677193375,522.6124981877304,3867.1105546848266,25.331245873231328,11.70557870340864,21.129367227856992,34.60253658501731,0.7102724150429738,2.4345441653150544,7.399575341375976,0.04847041729976377,0.39802997155361475,0.20284856190746337,0.07436357943215023,0.00029263886156390004,1.5363923370789957e-05,1.3703872449750821e-11,10.93083276139857,235.45104809163058,246.38188085302914,veteran,Drew Brees,QB,16.0,355.32,0.0,0.0,0.0,0.0,23.0,20.0,2.0,673.0,471.0,5208.0,37.0,15.0,27.0,4.0,0.0,0.0,23.0,23.0,0.0,0.0,0.0,0.0,0.0,0.0,10.0,6.0,2.0,16,325.7,21.455080906148865,0.966626213592233,0.9375,37.6290212183436,0.9656250000000001,1.0,1.0,0.0625,0.0,1.0,1.0,15.0,0.0,0.0,0.0,0.0,24.0,14.0,1.0,627.0,4870.0,32.0,11.0,,4
00-0020679,2016,veteran,QB,2.3749148891034757,18.957999209721713,45.02363459078002,321.61402684372166,1.9722407635847161,1.1496165514761207,2.148308316007647,3.8018520266127913,0.06915755082229219,0.4530522582575013,7.143226657884747,0.04380456579106551,0.06458731737512051,0.017157869597276346,0.0024930097549403837,0.00014133047613914572,6.468354301392422e-06,1.3703919704247934e-11,0.2267121642141685,18.34331701621552,18.570029180429685,veteran,Shaun Hill,QB,3.0,10.18,0.0,0.0,0.0,0.0,5.0,5.0,0.0,35.0,19.0,242.0,0.0,0.0,1.0,0.0,0.0,0.0,0.0,0.0,0.0,0.0,0.0,0.0,0.0,0.0,0.0,0.0,0.0,16,0.09999999999999998,6.418809523809523,0.3616071428571428,0.1875,36.64613278576318,0.2625,1.0,0.5,0.0,0.8125,0.0,13.0,3.0,0.0,0.0,0.0,0.0,4.0,-5.0,0.0,7.0,15.0,0.0,0.0,,4
00-0021206,2016,veteran,QB,6.554877987695191,32.255717091364545,211.432289939509,1514.0482643071489,9.229976612058687,5.063237086950292,13.899968458542734,63.69612596224082,0.5056847835709155,1.4569573749498317,7.160913145008833,0.04365452701051194,0.23779912881914192,0.09454540804435814,0.024717755976266135,0.0026551061511941713,0.00021173059190449873,1.3703729149027503e-11,2.8318741444786215,93.84516939437002,96.67704353884864,veteran,Josh McCown,QB,5.0,54.1,0.0,0.0,0.0,0.0,7.0,21.0,0.0,165.0,90.0,1100.0,6.0,6.0,18.0,4.0,0.0,0.0,2.0,2.0,0.0,0.0,0.0,0.0,0.0,0.0,2.0,0.0,0.0,16,140.16,15.402134831460675,0.5695224719101123,0.5,37.163586584531146,0.55625,1.0,0.6875,0.125,0.375,2.0,8.0,8.0,0.0,0.0,0.0,0.0,20.0,98.0,1.0,292.0,2109.0,12.0,4.0,,4
00-0021429,2016,veteran,QB,12.586823423614218,34.380572981104905,432.74220131584934,3280.1343263736726,21.947694951381283,10.351654919118909,17.802200191807867,26.773877840680182,0.5488099669950844,2.3879123172003256,7.579880853773196,0.050717713420702706,0.30503868471094375,0.13534385844931413,0.0410570572518972,0.0002070757950477955,1.0185123755761539e-05,1.3703894905021721e-11,7.4311465176760505,199.48726597387204,206.91841249154808,veteran,Carson Palmer,QB,15.0,252.12,0.0,0.0,0.0,0.0,14.0,38.0,0.0,597.0,364.0,4233.0,26.0,14.0,40.0,4.0,0.0,0.0,9.0,9.0,0.0,0.0,0.0,0.0,0.0,0.0,6.0,2.0,0.0,16,327.74,18.94676923076923,0.9134615384615384,1.0,36.681724845995895,0.8125000000000001,1.0,1.0,0.0,0.0,0.0,0.0,16.0,0.0,0.0,0.0,0.0,25.0,24.0,1.0,537.0,4671.0,35.0,11.0,,4
00-0021678,2016,veteran,QB,5.487944241786927,30.3135301857904,166.3589634313426,1225.6223602518266,8.546921133957493,4.388352976966466,7.53453974223203,20.178066304464966,0.21918193437412983,1.0668141116859455,7.36733588002698,0.051376378871733366,0.22096545689564462,0.0853066270894447,0.021425151343498275,0.00047687452200912106,2.745419476304137e-05,1.3703840740949516e-11,2.1528862596494944,75.63514300528949,77.78802926493898,veteran,Tony Romo,QB,1.0,5.16,0.0,0.0,0.0,0.0,0.0,0.0,0.0,4.0,3.0,29.0,1.0,0.0,0.0,0.0,0.0,0.0,0.0,0.0,0.0,0.0,0.0,0.0,0.0,0.0,0.0,0.0,0.0,16,43.16,16.135865921787712,0.7685055865921788,0.25,36.36413415468857,0.559375,1.0,0.9375,0.25,0.5,4.0,12.0,4.0,0.0,0.0,0.0,0.0,4.0,13.0,0.0,121.0,884.0,5.0,7.0,,4
00-0022787,2016,veteran,QB,1.6846067167278393,28.26291206709734,47.61189150252048,336.57311423108143,2.046727954977632,1.3988776724492282,1.7931802846950495,6.241264366465628,0.05547842415410089,0.3269388044523942,7.069097731882043,0.04298774718642048,0.17151512069465594,0.060326169479462975,0.013318641706600062,0.00048282675033926045,2.7862078424937644e-05,1.3703839935378828e-11,0.487131454544705,19.15520041692171,19.642331871466414,veteran,Matt Schaub,QB,3.0,0.44,0.0,0.0,0.0,0.0,2.0,-2.0,0.0,3.0,1.0,16.0,0.0,0.0,0.0,0.0,0.0,0.0,0.0,0.0,0.0,0.0,0.0,0.0,0.0,0.0,0.0,0.0,0.0,16,27.6,9.471562500000001,0.35937499999999994,0.125,35.186858316221766,0.2,1.0,0.625,0.0,0.875,0.0,14.0,2.0,0.0,0.0,0.0,0.0,4.0,10.0,0.0,80.0,540.0,3.0,4.0,,4
00-0022803,2016,veteran,QB,13.541123796501052,36.93448074782572,500.1343761657928,3582.7916713484988,24.031690293165415,12.81786637060417,19.000551430300682,54.893151106216244,0.5698408131848902,2.7157018523518652,7.163658092881854,0.048050466911314635,0.3142194332537285,0.14141644583347002,0.043734609953144134,0.0005599790736390531,3.323210085847944e-05,1.3703830307914111e-11,8.319979926246205,217.27965157042053,225.59963149666675,veteran,Eli Manning,QB,16.0,236.18,0.0,0.0,0.0,0.0,21.0,-9.0,0.0,598.0,377.0,4027.0,26.0,16.0,21.0,4.0,0.0,0.0,12.0,12.0,0.0,0.0,0.0,0.0,0.0,0.0,4.0,4.0,1.0,16,299.88,17.248874999999998,1.0,1.0,35.66050650239562,1.0,1.0,1.0,0.0,0.0,0.0,0.0,16.0,0.0,0.0,0.0,0.0,20.0,61.0,0.0,618.0,4432.0,35.0,14.0,,4
00-0022864,2016,veteran,QB,0.4559709950892019,16.32335725146991,7.442977449149275,53.81014950391793,0.32321941654407743,0.1861271177333432,0.24413979027242,0.8275997445832682,0.007674362658322483,0.08790336503556812,7.229653706671968,0.043426091070720776,0.044753577237205716,0.010901032814663526,0.0013756257781239224,0.00016652448663014832,7.860808836052159e-06,1.37039090545151e-11,0.02919796302610986,3.026028831203466,3.055226794229576,veteran,,,0.0,0.0,0.0,0.0,0.0,0.0,0.0,0.0,0.0,0.0,0.0,0.0,0.0,0.0,0.0,0.0,0.0,0.0,0.0,0.0,0.0,0.0,0.0,0.0,0.0,0.0,0.0,0.0,0.0,16,12.4,4.361290322580646,0.14314516129032256,0.125,35.14031485284052,0.096875,1.0,0.1875,0.0625,0.8125,1.0,14.0,2.0,0.0,0.0,0.0,0.0,0.0,0.0,0.0,39.0,335.0,0.0,1.0,,4
00-0022924,2016,veteran,QB,10.711689335794258,37.28021415599497,399.3340724108974,3017.593950797811,18.54535627217432,10.087025133930764,17.417818307413032,35.18425418116746,0.4941233771274307,2.06909366070395,7.556565190091863,0.04644070604897434,0.3536663498971932,0.168953302821407,0.05666576563427381,0.0003977328658270177,2.2126507112138826e-05,1.3703852525617743e-11,7.721615071236868,177.0561112122216,184.77772628345846,veteran,Ben Roethlisberger,QB,14.0,261.16,0.0,0.0,0.0,0.0,16.0,14.0,1.0,509.0,328.0,3819.0,29.0,13.0,17.0,2.0,0.0,0.0,9.0,9.0,0.0,0.0,0.0,0.0,0.0,0.0,4.0,2.0,1.0,16,247.12,19.927246376811595,0.8804347826086957,0.75,34.502395619438744,0.8625,1.0,1.0,0.1875,0.0625,3.0,4.0,12.0,0.0,0.0,-3.0,0.0,15.0,29.0,0.0,469.0,3938.0,21.0,16.0,,4
00-0022942,2016,veteran,QB,13.542011647810774,37.7602944004874,511.3503465961644,3723.3062700236674,23.95737002277015,12.210394234971075,22.7151285406297,55.233682670826276,0.6178412414820166,2.521635078023263,7.2813214947600775,0.046851185654305086,0.3381003601724379,0.15780279915267226,0.05127376918240315,0.0005657063053213429,3.3636606745822836e-05,1.3703829647035311e-11,9.181054053576224,224.52808798201332,233.70914203558954,veteran,Philip Rivers,QB,16.0,267.94,0.0,0.0,0.0,0.0,14.0,35.0,0.0,578.0,349.0,4386.0,33.0,21.0,36.0,5.0,0.0,0.0,9.0,9.0,0.0,0.0,0.0,0.0,0.0,0.0,6.0,2.0,0.0,16,302.48,18.3918125,1.0,1.0,34.732375085557834,1.0,1.0,1.0,0.0,0.0,0.0,0.0,16.0,0.0,0.0,0.0,0.0,17.0,28.0,0.0,661.0,4792.0,29.0,13.0,,4
00-0023436,2016,veteran,QB,13.373321283246066,32.634279458228036,436.4287040421209,3122.1326358346664,19.10082663366933,8.652765712348423,56.33845283077605,302.6106929781157,1.5694336731382839,2.3579093290294493,7.153820559734176,0.04376620157373026,0.243316349227027,0.09765641546600261,0.025861035678149746,0.013524347852617857,0.0014828374364009957,1.3703622763974482e-11,6.11524065997551,218.9449332219495,225.060173881925,veteran,Alex Smith,QB,15.0,226.78,1.0,1.0,3.0,0.0,48.0,134.0,5.0,489.0,328.0,3502.0,15.0,8.0,28.0,4.0,0.0,0.0,2.5,2.5,0.0,0.0,0.0,0.0,0.0,0.0,1.0,1.0,0.0,16,273.74,16.393247588424437,0.9728697749196141,1.0,32.32032854209446,0.971875,1.0,1.0,0.0,0.0,0.0,0.0,16.0,0.0,0.0,0.0,0.0,84.0,498.0,2.0,470.0,3486.0,20.0,7.0,,4
00-0023459,2016,veteran,QB,13.192074062413628,35.393002929730216,466.9071159402235,3382.935570314979,24.226461549545476,8.97359012248801,43.018211590669374,233.01791600581052,1.255140005313814,2.568273885989003,7.245414462152007,0.05188711142420692,0.2954633506068228,0.12914198368235685,0.03838762508003548,0.008337458008990354,0.0008298858923351371,1.3703654503366097e-11,7.592485348304056,239.97217262629096,247.564657974595,veteran,Aaron Rodgers,QB,16.0,389.02,0.0,0.0,0.0,0.0,67.0,369.0,4.0,610.0,401.0,4428.0,40.0,7.0,35.0,4.0,0.0,0.0,9.0,9.0,0.0,0.0,0.0,0.0,0.0,0.0,6.0,2.0,0.0,16,305.74,20.390635451505013,0.9604933110367894,1.0,32.7501711156742,0.9343750000000001,1.0,1.0,0.0,0.0,0.0,0.0,16.0,0.0,0.0,0.0,0.0,58.0,344.0,1.0,572.0,3821.0,31.0,8.0,,4
00-0023541,2016,veteran,QB,2.9391533521889777,32.29817380339936,94.92928580384344,673.1192196726835,4.200411570615791,2.3286579477510343,3.9509378128843373,9.801101735783616,0.1278616342167374,0.5793311774764864,7.090743535810217,0.04424779492490111,0.2334528292891358,0.09212363037834972,0.02383975390979754,0.0004074131471381802,2.27681752212232e-05,1.3703850964068685e-11,1.2337370951208448,39.65771679779425,40.891453892915095,veteran,,,0.0,0.0,0.0,0.0,0.0,0.0,0.0,0.0,0.0,0.0,0.0,0.0,0.0,0.0,0.0,0.0,0.0,0.0,0.0,0.0,0.0,0.0,0.0,0.0,0.0,0.0,0.0,0.0,0.0,16,0.0,14.786923076923078,0.701923076923077,0.0,33.79876796714579,0.24374999999999997,0.0,0.75,0.0,1.0,0.0,16.0,0.0,0.0,0.0,0.0,0.0,0.0,0.0,0.0,0.0,0.0,0.0,0.0,,4
00-0023578,2016,veteran,QB,0.31076521016094105,20.01109756505038,6.218752940353977,44.024239707017756,0.2770370669801559,0.1553693997145705,0.168629320744707,0.6439813607672019,0.005316068668843738,0.06017882280869036,7.079271379530292,0.04454865302373416,0.0727050583485248,0.019893922958588876,0.0030288770915954263,0.00019961261339606796,9.750315635890066e-06,1.3703897288148803e-11,0.03381682846561435,2.5343159592445947,2.568132787710209,veteran,,,0.0,0.0,0.0,0.0,0.0,0.0,0.0,0.0,0.0,0.0,0.0,0.0,0.0,0.0,0.0,0.0,0.0,0.0,0.0,0.0,0.0,0.0,0.0,0.0,0.0,0.0,0.0,0.0,0.0,16,10.040000000000001,5.0200000000000005,0.125,0.125,33.040383299110196,0.06875,1.0,0.125,0.0,0.875,0.0,14.0,2.0,0.0,0.0,0.0,0.0,0.0,0.0,0.0,40.0,201.0,1.0,1.0,,4
00-0023645,2016,veteran,QB,1.7584795614942976,13.59296533832796,23.90295172755014,171.3108176871177,1.0885982507080751,0.5541375028369521,2.4055583023713023,4.895158182905413,0.07256842111932821,0.33228685587561924,7.1669315003329785,0.04554241932611926,0.026584045362137005,0.005777457577660702,0.0006009191663891795,0.0003073913421782768,1.62889146230587e-05,1.3703869256324692e-11,0.06468372720310346,10.358903337898376,10.42358706510148,veteran,Derek Anderson,QB,4.0,16.519999999999996,0.0,0.0,0.0,0.0,1.0,4.0,0.0,53.0,36.0,453.0,2.0,5.0,0.0,1.0,0.0,0.0,0.0,0.0,0.0,0.0,0.0,0.0,0.0,0.0,0.0,0.0,0.0,16,1.24,4.392777777777777,0.2395833333333333,0.1875,33.215605749486656,0.22500000000000003,1.0,0.3125,0.0,0.8125,0.0,13.0,3.0,0.0,0.0,0.0,0.0,7.0,-2.0,0.0,6.0,36.0,0.0,0.0,,4
00-0023662,2016,veteran,QB,5.682538372519197,25.533045931160608,145.0925132711153,1013.6960773351045,6.054358591849918,4.104766608080534,10.53573843459509,41.28058080618177,0.3140582195338806,1.0513582587533175,6.9865498534782695,0.041727574051577246,0.13065773389108765,0.04206587252751487,0.008186477693929916,0.00155080882999813,0.00011162135455453624,1.3703764123612554e-11,1.2038329057685457,60.465435124957615,61.66926803072616,veteran,Matt Cassel,QB,4.0,15.66,0.0,0.0,0.0,0.0,4.0,3.0,0.0,51.0,30.0,284.0,2.0,2.0,5.0,0.0,0.0,0.0,0.0,0.0,0.0,0.0,0.0,0.0,0.0,0.0,0.0,0.0,0.0,16,66.84,9.04872180451128,0.47039473684210525,0.5,34.2943189596167,0.415625,1.0,0.5625,0.0,0.5,0.0,8.0,8.0,0.0,0.0,0.0,0.0,15.0,78.0,0.0,204.0,1276.0,5.0,7.0,,4
00-0023682,2016,veteran,QB,12.740583913649452,33.10616450894908,421.79186698534903,3017.8944328508856,20.504544365049252,10.955867487885286,41.37566279211637,170.3528112506392,1.3629036622050095,2.378900626769075,7.1549374681416325,0.048612943894817864,0.25095396763842365,0.10203140346347706,0.0274979402521875,0.004866632352637327,0.00043605687980615554,1.3703689674791106e-11,5.918226367229697,201.2771216432177,207.1953480104474,veteran,Ryan Fitzpatrick,QB,14.0,135.9,0.0,0.0,0.0,0.0,33.0,130.0,0.0,403.0,228.0,2710.0,12.0,17.0,19.0,1.0,0.0,0.0,2.5,2.5,0.0,0.0,0.0,0.0,0.0,0.0,1.0,1.0,0.0,16,287.7,16.99644128113879,0.8992437722419928,1.0,33.77138945927447,0.878125,1.0,1.0,0.0,0.0,0.0,0.0,16.0,0.0,0.0,0.0,0.0,60.0,270.0,2.0,562.0,3905.0,31.0,15.0,,4
