player_id,season,entry,position,proj_games,proj_cpg,proj_tpg,proj_carries,proj_rush_yards,proj_rush_tds,proj_targets,proj_receptions,proj_rec_yards,proj_rec_tds,proj_fumbles_lost,proj_ypc,proj_catch_rate,proj_ypr,p_rush_100,p_rush_150,p_rush_200,p_rec_100,p_rec_150,p_rec_200,proj_bonus_points,proj_points_base,proj_points,entry_act,name,position_act,games,points,targets,receptions,rec_yards,rec_tds,carries,rush_yards,rush_tds,attempts,completions,pass_yards,pass_tds,interceptions,sacks,fumbles_lost,rec_bonus,rush_bonus,pass_bonus,total_bonus,g100,g150,g200,r100,r150,r200,p300,p350,p400,season_len,pts_1,ppg_w,gshare_w,gshare_1,age,evidence,present_1,gshare_max3,inj_missed_share_1,unexp_missed_share_1,inj_out_wks_1,missed_wks_1,games_1,tgt_1,rec_1,recyds_1,rectd_1,carries_1,rushyds_1,rushtd_1,att_1,passyds_1,passtd_1,ints_1,average_pick,n_train_seasons
00-0022178,2014,veteran,RB,5.715006495477823,9.206568863297848,2.0247798632147287,52.61560085481108,201.3788086772805,1.381408942612915,11.571630070184872,8.57347728007262,68.29354688788736,0.22369035021823871,0.6879233125881427,3.8273592889867523,0.740904887908817,7.96567654604071,0.03290482619534303,0.0010325626085900526,0.00030386414452403894,9.098893703046718e-05,6.104962134859516e-09,1.3669614653546027e-11,0.20089617443820618,39.508723328363736,39.70961950280194,veteran,,,0.0,0.0,0.0,0.0,0.0,0.0,0.0,0.0,0.0,0.0,0.0,0.0,0.0,0.0,0.0,0.0,0.0,0.0,0.0,0.0,0.0,0.0,0.0,0.0,0.0,0.0,0.0,0.0,0.0,16,53.699999999999996,8.240707964601768,0.7206858407079646,0.6875,32.86242299794661,0.70625,1.0,0.9375,0.0625,0.25,1.0,5.0,11.0,11.0,8.0,20.0,0.0,138.0,377.0,2.0,0.0,0.0,0.0,0.0,,2
00-0022736,2014,veteran,RB,8.014228235009401,11.537570050739008,3.841557732067365,92.4647196640314,358.47802535947005,2.492961740920345,30.787120442752958,22.2205226841124,177.23408788496303,0.572295669963654,0.3816663297160825,3.8769168031006025,0.7217473529370927,7.976143964051971,0.06393995798843086,0.003237943907701463,0.0009289693085941083,0.001849591716007922,5.0154592019756e-06,1.3669178873880518e-11,0.5811271359385863,82.30968447237134,82.89081160830993,veteran,Steven Jackson,RB,15.0,132.5,27.0,20.0,148.0,0.0,190.0,707.0,6.0,0.0,0.0,0.0,0.0,0.0,0.0,0.0,0.0,1.0,0.0,1.0,0.0,0.0,0.0,1.0,0.0,0.0,0.0,0.0,0.0,16,131.9,11.638827838827838,0.8688186813186813,0.75,31.1129363449692,0.853125,1.0,1.0,0.25,0.0,4.0,4.0,12.0,49.0,33.0,191.0,1.0,157.0,543.0,6.0,0.0,0.0,0.0,0.0,,2
00-0022821,2014,veteran,RB,0.018564007189489473,12.188126094720753,2.7288145943944735,0.2262604604488003,0.8966378194998587,0.006353713957458969,0.05065773374912281,0.036784573132149986,0.2894236434366734,0.0011324865744280358,0.0014444536647555007,3.962856867352463,0.7261393356900209,7.86807128077599,0.07881128823725463,0.004680394193660814,0.0013325466006900279,0.00033002929412814195,1.0764273557259084e-07,1.366942831155644e-11,0.0016489881021087786,0.17902672872153924,0.18067571682364802,veteran,,,0.0,0.0,0.0,0.0,0.0,0.0,0.0,0.0,0.0,0.0,0.0,0.0,0.0,0.0,0.0,0.0,0.0,0.0,0.0,0.0,0.0,0.0,0.0,0.0,0.0,0.0,0.0,0.0,0.0,16,0.0,11.779166666666669,1.0,0.0,32.54757015742642,0.44999999999999996,0.0,1.0,0.0,1.0,0.0,16.0,0.0,0.0,0.0,0.0,0.0,0.0,0.0,0.0,0.0,0.0,0.0,0.0,,2
00-0022984,2014,veteran,RB,0.0,5.732492225676806,1.6854268114572062,0.0,0.0,0.0,0.0,0.0,0.0,0.0,0.0,4.045568227434276,0.7420244283002084,7.754007962173514,7.27347742135508e-07,2.1942448442320727e-11,9.78471240346656e-12,1.491172159098775e-10,9.357622968839299e-14,1.3671541091120907e-11,0.0,0.0,0.0,veteran,,,0.0,0.0,0.0,0.0,0.0,0.0,0.0,0.0,0.0,0.0,0.0,0.0,0.0,0.0,0.0,0.0,0.0,0.0,0.0,0.0,0.0,0.0,0.0,0.0,0.0,0.0,0.0,0.0,0.0,16,0.0,6.4959999999999996,0.6875,0.0,31.72895277207392,0.234375,0.0,0.9375,0.0,1.0,0.0,16.0,0.0,0.0,0.0,0.0,0.0,0.0,0.0,0.0,0.0,0.0,0.0,0.0,,2
00-0023437,2014,veteran,RB,7.70051439924476,1.6918199194690149,1.8850656030352042,13.02788365080026,52.00881449870755,0.3481920851228357,14.515974819693596,11.110724436843228,87.60167350616878,0.247583581545123,0.3624351698096839,3.9921153652237926,0.7654135926007175,7.884424998938963,0.000335691454093706,5.234926577638921e-07,1.84083432473045e-07,7.188193404159468e-05,3.6116312858249502e-09,1.3669648740401392e-11,0.003147448490107949,22.36619467929763,22.36934212778774,veteran,Ronnie Brown,RB,8.0,13.2,8.0,5.0,44.0,0.0,20.0,63.0,0.0,0.0,0.0,0.0,0.0,0.0,0.0,0.0,0.0,0.0,0.0,0.0,0.0,0.0,0.0,0.0,0.0,0.0,0.0,0.0,0.0,16,31.7,3.2253571428571424,0.875,0.875,32.720054757015745,0.8750000000000001,1.0,0.875,0.0,0.125,0.0,2.0,14.0,8.0,8.0,60.0,0.0,45.0,157.0,1.0,0.0,0.0,0.0,0.0,,2
00-0023439,2014,veteran,RB,0.0,12.291948364850565,2.7381969678260054,0.0,0.0,0.0,0.0,0.0,0.0,0.0,0.0,3.954325265190243,0.7497734258025557,7.902636798643906,7.27347742135508e-07,2.1942448442320727e-11,9.78471240346656e-12,1.491172159098775e-10,9.357622968839299e-14,1.3671541091120907e-11,0.0,0.0,0.0,veteran,,,0.0,0.0,0.0,0.0,0.0,0.0,0.0,0.0,0.0,0.0,0.0,0.0,0.0,0.0,0.0,0.0,0.0,0.0,0.0,0.0,0.0,0.0,0.0,0.0,0.0,0.0,0.0,0.0,0.0,16,0.0,10.096,0.6875,0.0,31.67693360711841,0.234375,0.0,0.9375,0.0,1.0,0.0,16.0,0.0,0.0,0.0,0.0,0.0,0.0,0.0,0.0,0.0,0.0,0.0,0.0,,2
00-0023500,2014,veteran,RB,9.877860257484397,13.93263520323222,2.0869946675808264,137.62462355603557,566.7106420632755,3.800073666651904,20.615041684478506,14.813514886865612,115.86110297429667,0.38612341853810195,1.0397745863652021,4.117799761555985,0.718577973966408,7.821310732743436,0.12426230126293542,0.01068251699906553,0.0029954995017677016,8.321427602957084e-05,5.003730073371628e-09,1.366962757018822e-11,1.4457265666801309,98.70156528559966,100.14729185227979,veteran,Frank Gore,RB,16.0,158.7,19.0,11.0,111.0,1.0,255.0,1106.0,4.0,0.0,0.0,0.0,0.0,0.0,0.0,2.0,0.0,5.5,0.0,5.5,0.0,0.0,0.0,4.0,1.0,0.0,0.0,0.0,0.0,16,187.4,12.344375,1.0,1.0,31.301848049281315,1.0,1.0,1.0,0.0,0.0,0.0,0.0,16.0,26.0,16.0,141.0,0.0,276.0,1128.0,9.0,0.0,0.0,0.0,0.0,,2
00-0023545,2014,veteran,RB,2.8032293373842556,5.5718069904938,1.532432454492066,15.6190528179949,62.28645931780994,0.44213496778467626,4.2957596139919225,3.0753248894626966,24.183657291252423,0.09484401611326855,0.2183679392490815,3.9878512508805244,0.7158978075602531,7.863773149339567,0.00889076681182187,0.0001156216123345737,3.5804444681912134e-05,1.9463054684800626e-05,1.968397273742456e-10,1.366983767041525e-11,0.025664325652028724,12.96981213052709,12.99547645617912,veteran,,,0.0,0.0,0.0,0.0,0.0,0.0,0.0,0.0,0.0,0.0,0.0,0.0,0.0,0.0,0.0,0.0,0.0,0.0,0.0,0.0,0.0,0.0,0.0,0.0,0.0,0.0,0.0,0.0,0.0,16,49.1,7.095419847328245,0.5491412213740458,0.4375,32.15605749486653,0.40937500000000004,1.0,0.875,0.25,0.3125,4.0,9.0,7.0,7.0,2.0,13.0,0.0,58.0,238.0,4.0,0.0,0.0,0.0,0.0,,2
00-0023564,2014,veteran,RB,9.064326404604614,6.851558376944626,6.143325415931465,62.104761508829114,262.2260997994236,1.689924459328723,55.6851067797062,42.15018773544656,322.9999607825321,1.9166268040202934,0.6802638811674429,4.22231876314579,0.7569382582347441,7.663072886171337,0.018826778555790482,0.00040315029699919153,0.00012124599685858561,0.019925879141056764,0.0010385246528555917,1.3668832525013342e-11,0.3730664837117286,99.87647974367808,100.2495462273898,veteran,Darren Sproles,RB,15.0,140.1,62.0,40.0,387.0,0.0,57.0,329.0,6.0,0.0,0.0,0.0,0.0,0.0,0.0,1.0,2.5,0.0,0.0,2.5,1.0,1.0,0.0,0.0,0.0,0.0,0.0,0.0,0.0,16,138.9,11.390721649484535,0.9143041237113402,0.9375,31.200547570157426,0.909375,1.0,1.0,0.0,0.0625,0.0,1.0,15.0,89.0,71.0,604.0,2.0,53.0,220.0,2.0,0.0,0.0,0.0,0.0,,2
00-0024103,2014,veteran,RB,0.67047186749814,2.0887056611324555,1.4475002185509387,1.4004183852734147,5.725687455620849,0.0378654304877523,0.9705081747358137,0.7214897337673981,5.633606128484221,0.020653015058210683,0.041744588975156996,4.088554903185578,0.743414380784374,7.808297006621643,0.0006243616499982013,1.4518078031859433e-06,4.98395606162369e-07,1.7213920738136344e-05,1.4974400518100345e-10,1.3669855427845916e-11,0.00043228695488120735,1.7642957206196699,1.764728007574551,veteran,Montell Owens,RB,1.0,0.0,0.0,0.0,0.0,0.0,0.0,0.0,0.0,0.0,0.0,0.0,0.0,0.0,0.0,0.0,0.0,0.0,0.0,0.0,0.0,0.0,0.0,0.0,0.0,0.0,0.0,0.0,0.0,16,0.0,3.339285714285715,0.5848214285714286,0.0,30.327173169062284,0.26249999999999996,0.0,0.625,0.0625,0.9375,1.0,16.0,0.0,0.0,0.0,0.0,0.0,0.0,0.0,0.0,0.0,0.0,0.0,0.0,,2
00-0024204,2014,veteran,RB,7.266210291343931,11.202768562857868,3.8135552257514274,81.4016722229821,337.60017110426594,2.2941957784341445,27.71009422796345,20.559531602779202,160.35161699348558,0.5273218034200168,0.6590937430945556,4.147337049532398,0.7419509812432068,7.799380846390951,0.07093453620325749,0.0038852267191312336,0.0011104011414257685,0.0018302283531568039,4.899073111512416e-06,1.3669180398431357e-11,0.587260605767703,75.68586261610061,76.2731232218683,veteran,Fred Jackson,RB,14.0,155.6,90.0,66.0,501.0,1.0,141.0,525.0,2.0,1.0,0.0,0.0,0.0,0.0,0.0,0.0,0.0,0.0,0.0,0.0,0.0,0.0,0.0,0.0,0.0,0.0,0.0,0.0,0.0,16,212.2,13.217669172932329,0.8731203007518797,1.0,33.52772073921971,0.83125,1.0,1.0,0.0,0.0,0.0,0.0,16.0,66.0,47.0,387.0,1.0,206.0,890.0,9.0,0.0,0.0,0.0,0.0,,2
00-0024217,2014,veteran,RB,9.993459411896065,14.156881603478364,4.2942445433904854,141.4762217033791,600.804341378679,3.7528704518218023,42.91435854912897,30.829105831598714,237.10214345477382,1.2249066034995961,1.348466280951794,4.24668070821352,0.7183867328764827,7.690853726018636,0.14004892029885707,0.01336032910518933,0.003733801878089414,0.002623726257102435,1.0944371654056415e-05,1.3669128206876746e-11,1.7008584160237687,126.37493116916943,128.0757895851932,veteran,Reggie Bush,RB,11.0,87.0,56.0,40.0,253.0,0.0,76.0,297.0,2.0,0.0,0.0,0.0,0.0,0.0,0.0,0.0,0.0,0.0,0.0,0.0,0.0,0.0,0.0,0.0,0.0,0.0,0.0,0.0,0.0,16,216.2,14.08,0.9252118644067797,0.875,29.50034223134839,0.921875,1.0,1.0,0.0,0.125,0.0,2.0,14.0,80.0,54.0,506.0,3.0,223.0,1006.0,4.0,0.0,0.0,0.0,0.0,,2
00-0024242,2014,veteran,RB,9.375747937982972,9.969213217316597,2.0601584088620717,93.46883026556867,386.7890824258413,2.491110782796287,19.315525953806848,14.069936399204181,105.01168312931931,0.5187836510377143,0.8506348069651102,4.138161153048298,0.7284262635587809,7.463550662194816,0.05114824461926211,0.0021966384579233814,0.0006355450585059007,6.672928610490316e-05,3.0602967860480936e-09,1.3669659496661897e-11,0.5229888425643977,72.57314174419193,73.09613058675633,veteran,DeAngelo Williams,RB,6.0,26.8,6.0,5.0,44.0,0.0,62.0,219.0,0.0,0.0,0.0,0.0,0.0,0.0,0.0,1.0,0.0,0.0,0.0,0.0,0.0,0.0,0.0,0.0,0.0,0.0,0.0,0.0,0.0,16,151.6,9.580258899676373,0.966626213592233,0.9375,31.353867214236825,0.9656250000000001,1.0,1.0,0.0,0.0625,0.0,1.0,15.0,36.0,26.0,333.0,1.0,201.0,843.0,3.0,0.0,0.0,0.0,0.0,,2
00-0024275,2014,veteran,RB,9.014005136337655,13.693998235120166,3.7878089575526177,123.43777042837196,481.75470107084277,3.2608823993986698,34.143329398845076,24.96981098953498,197.6714455578646,0.668220216533355,0.6075406255278447,3.902814344418135,0.7313232607708023,7.916417374593266,0.10328372394020736,0.007606436012805952,0.002145389783548984,0.0017737853227606168,4.568405846865553e-06,1.3669184936035934e-11,1.088574486794014,102.78705460217468,103.8756290889687,veteran,Maurice Jones-Drew,RB,11.0,22.2,16.0,11.0,71.0,0.0,43.0,96.0,0.0,0.0,0.0,0.0,0.0,0.0,0.0,0.0,0.0,0.0,0.0,0.0,0.0,0.0,0.0,0.0,0.0,0.0,0.0,0.0,0.0,16,166.52,12.585220883534136,0.8682228915662651,0.9375,29.44284736481862,0.7781250000000001,1.0,1.0,0.0625,0.0,1.0,1.0,15.0,60.0,43.0,314.0,0.0,234.0,803.0,5.0,1.0,8.0,1.0,0.0,,2
00-0024813,2014,veteran,RB,10.74058820813811,8.545874856414207,4.215098116247516,91.78772271102639,368.43955690602473,2.4142131337517676,45.27263312351323,36.46963392346389,290.5998391278995,1.163974380026184,0.6516463224174271,4.0140396343199,0.8055558382028959,7.9682686077343075,0.030506369189855987,0.0009082338984379638,0.00026806280827422425,0.005050360762606218,4.729972244184246e-05,1.3669033165115631e-11,0.40305298892752645,104.30458900295723,104.70764199188476,veteran,Pierre Thomas,RB,11.0,100.5,55.0,45.0,378.0,1.0,45.0,222.0,2.0,0.0,0.0,0.0,0.0,0.0,0.0,0.0,0.0,0.0,0.0,0.0,0.0,0.0,0.0,0.0,0.0,0.0,0.0,0.0,0.0,16,172.70000000000002,9.757961783439491,0.9820859872611465,1.0,29.702943189596166,0.9812500000000001,1.0,1.0,0.0,0.0,0.0,0.0,16.0,84.0,77.0,513.0,3.0,147.0,549.0,2.0,0.0,0.0,0.0,0.0,,2
00-0025394,2014,veteran,RB,9.818407324105593,18.56869265516896,2.7780462710477316,182.31498796457663,846.0759524327982,5.17898680880293,27.275989854359278,20.327971217863027,164.63657274220986,0.6261189627396271,1.087907004364724,4.640737231089244,0.7452697895256839,8.099016423121306,0.32051394122089916,0.07211231865374676,0.02022439272493572,0.00047140812296544716,2.3819830349977478e-07,1.3669376735883124e-11,4.610753241043236,143.89005874695823,148.50081198800146,veteran,Adrian Peterson,RB,1.0,10.3,3.0,2.0,18.0,0.0,21.0,75.0,0.0,0.0,0.0,0.0,0.0,0.0,0.0,0.0,0.0,0.0,0.0,0.0,0.0,0.0,0.0,0.0,0.0,0.0,0.0,0.0,0.0,16,226.70000000000002,18.224825174825174,0.9012237762237763,0.875,29.44832306639288,0.89375,1.0,1.0,0.0625,0.0625,1.0,2.0,14.0,40.0,29.0,171.0,1.0,279.0,1266.0,10.0,0.0,0.0,0.0,0.0,,2
00-0025399,2014,veteran,RB,11.676618539974452,17.94653165555988,2.4585629074591306,209.5548042575489,886.5099877399607,5.984845499596807,28.707701226930777,21.7326732157483,168.93778845258697,0.8051036066497199,0.9613272513138456,4.230444588855211,0.7570328618078558,7.773447231984715,0.24487918634648043,0.040297408754045624,0.011188948024416707,0.00022926224003779556,4.781383123631213e-08,1.3669481005383636e-11,3.8291430539897986,155.22815436198036,159.05729741597017,veteran,Marshawn Lynch,RB,16.0,288.8,48.0,37.0,367.0,4.0,280.0,1306.0,13.0,0.0,0.0,0.0,0.0,0.0,0.0,2.0,0.0,5.0,0.0,5.0,0.0,0.0,0.0,5.0,0.0,0.0,0.0,0.0,0.0,16,260.3,16.33659305993691,0.9911277602523659,1.0,28.361396303901437,0.9906250000000001,1.0,1.0,0.0,0.0,0.0,0.0,16.0,44.0,36.0,316.0,2.0,301.0,1257.0,12.0,0.0,0.0,0.0,0.0,,2
00-0025439,2014,veteran,RB,9.561260203283105,2.281132592858901,2.1093424899048436,21.810502278513813,86.99072881446482,0.5744106807001613,20.167972403821278,15.087929644820498,120.24936826973578,0.3210461860865,0.4010096151161752,3.988478931095595,0.7481133622516138,7.969905156007664,0.0007402708574759676,1.920887136459972e-06,6.55091128091904e-07,0.00011634962159170909,1.0555615920193325e-08,1.366957909836769e-11,0.008230599090773866,32.83869650131792,32.84692710040869,veteran,Brian Leonard,RB,1.0,2.0,1.0,1.0,15.0,0.0,0.0,0.0,0.0,0.0,0.0,0.0,0.0,0.0,0.0,0.0,0.0,0.0,0.0,0.0,0.0,0.0,0.0,0.0,0.0,0.0,0.0,0.0,0.0,16,50.6,2.839372822299652,0.9118031358885017,1.0,30.576317590691307,0.896875,1.0,1.0,0.0,0.0,0.0,0.0,16.0,37.0,29.0,179.0,0.0,47.0,182.0,0.0,0.0,0.0,0.0,0.0,,2
00-0025487,2014,veteran,RB,9.213348012873471,6.176152088341105,1.2125432136157903,56.90303857032186,217.35023330851578,1.5870205874344567,11.171582607690254,8.221322529830301,63.54116194009215,0.2937817521338571,0.5188905476162522,3.8196595255613675,0.7359138645379516,7.728824858718166,0.010540340723968736,0.0001533406640797231,4.717118791120347e-05,6.944074443300278e-06,1.9831954726420493e-11,1.36699867042783e-11,0.10016418645948141,42.446833731953326,42.546997918412806,veteran,,,0.0,0.0,0.0,0.0,0.0,0.0,0.0,0.0,0.0,0.0,0.0,0.0,0.0,0.0,0.0,0.0,0.0,0.0,0.0,0.0,0.0,0.0,0.0,0.0,0.0,0.0,0.0,0.0,0.0,16,50.5,5.962142857142856,0.8790178571428571,0.875,30.209445585215605,0.8750000000000001,1.0,1.0,0.0,0.125,0.0,2.0,14.0,8.0,4.0,48.0,1.0,63.0,197.0,3.0,0.0,0.0,0.0,0.0,,2
00-0025637,2014,veteran,RB,4.4819183802544735,13.63280614002201,2.882916496245479,61.10112441341069,252.50231787396933,1.6978209217472011,12.92099643326144,9.691918176616396,75.70845026844395,0.2663462192207546,0.4190785370675767,4.132531443538365,0.7500906162056745,7.811503243094339,0.1185540040768479,0.00979201626559369,0.002749692363412143,0.0004887391040047961,2.581503102789463e-07,1.3669371512750033e-11,0.6240199143416545,48.613881674222114,49.237901588563766,veteran,Ahmad Bradshaw,RB,10.0,135.5,47.0,38.0,300.0,6.0,90.0,425.0,2.0,0.0,0.0,0.0,0.0,0.0,0.0,2.0,0.0,0.0,0.0,0.0,0.0,0.0,0.0,0.0,0.0,0.0,0.0,0.0,0.0,16,38.3,13.07908496732026,0.6973039215686275,0.1875,28.45448323066393,0.478125,1.0,0.875,0.125,0.6875,2.0,13.0,3.0,8.0,7.0,42.0,0.0,41.0,186.0,2.0,0.0,0.0,0.0,0.0,,2
00-0025701,2014,veteran,RB,7.524661796831552,3.641648700678706,1.0126841720732227,27.402174855478318,107.57141379438431,0.7394416177697126,7.620105901855369,5.7643855282459935,45.34580218562579,0.17781634175801925,0.3328201554817169,3.925652411231087,0.7564705271146509,7.866545699177717,0.002562854179640039,1.48233212694553e-05,4.817662699258592e-06,3.7827919414643916e-06,5.127580515422208e-12,1.367007454114472e-11,0.01955288871380902,23.011821808326967,23.031374697040775,veteran,Jackie Battle,RB,10.0,12.2,5.0,5.0,28.0,0.0,5.0,9.0,1.0,0.0,0.0,0.0,0.0,0.0,0.0,0.0,0.0,0.0,0.0,0.0,0.0,0.0,0.0,0.0,0.0,0.0,0.0,0.0,0.0,16,25.8,3.81328125,0.8193359375,0.6875,30.91854893908282,0.8,1.0,0.9375,0.0,0.3125,0.0,5.0,11.0,5.0,4.0,36.0,0.0,36.0,142.0,1.0,0.0,0.0,0.0,0.0,,2
00-0025860,2014,veteran,RB,11.08469865722368,11.51177261649692,1.2186432550131425,127.60453046434773,476.5175943018798,3.518379924915893,13.508293252478875,9.860578858163946,78.05044088775125,0.25030790958711824,0.9981352756207275,3.7343313169826455,0.7299648204153737,7.915401520584194,0.05732287134934107,0.002676297333149461,0.0007709848645477161,7.631604581726877e-06,2.4472074012972857e-11,1.366997305222909e-11,0.697082543789483,81.0029494038217,81.70003194761118,veteran,,,0.0,0.0,0.0,0.0,0.0,0.0,0.0,0.0,0.0,0.0,0.0,0.0,0.0,0.0,0.0,0.0,0.0,0.0,0.0,0.0,0.0,0.0,0.0,0.0,0.0,0.0,0.0,0.0,0.0,16,117.8,8.786305732484077,0.9820859872611465,1.0,29.166324435318277,0.9812500000000001,1.0,1.0,0.0,0.0,0.0,0.0,16.0,8.0,4.0,22.0,0.0,220.0,756.0,7.0,0.0,0.0,0.0,0.0,,2
00-0026019,2014,veteran,RB,10.740774635784152,7.9352532275828205,3.874180279464182,85.23076659534588,342.5247249653033,2.3058845524683718,41.61169728012405,32.46347197275214,249.47571420348578,1.6961575342282769,0.781438103500052,4.0187920236776,0.7801525555233338,7.684813085084691,0.02482105252038269,0.0006411708927632836,0.00019076403254728917,0.002360476430435343,8.643342796368844e-06,1.3669143533337908e-11,0.30651784636372686,97.88115621643476,98.1876740627985,veteran,Danny Woodhead,RB,3.0,9.7,6.0,5.0,34.0,0.0,15.0,38.0,0.0,0.0,0.0,0.0,0.0,0.0,0.0,0.0,0.0,0.0,0.0,0.0,0.0,0.0,0.0,0.0,0.0,0.0,0.0,0.0,0.0,16,185.4,9.868167202572348,0.9728697749196141,1.0,29.598904859685145,0.971875,1.0,1.0,0.0,0.0,0.0,0.0,16.0,87.0,76.0,605.0,6.0,106.0,429.0,2.0,0.0,0.0,0.0,0.0,,2
00-0026144,2014,veteran,RB,8.681642889517292,12.089553214534732,3.3633150493143797,104.95718370240637,396.16521222301213,2.8452632048692936,29.199100183086685,21.170227917652245,169.3666979579754,0.5558560487334449,0.8152666541827546,3.774541181919396,0.7250301476726638,8.000230258114197,0.06753344275609423,0.0035635967674554412,0.001020325392618047,0.0009935591041029858,1.254565758007067e-06,1.3669268853443258e-11,0.6590663094002638,85.91448719017579,86.57355349957605,veteran,Darren McFadden,RB,16.0,102.6,56.0,36.0,212.0,0.0,155.0,534.0,2.0,1.0,0.0,0.0,0.0,0.0,0.0,1.0,0.0,0.0,0.0,0.0,0.0,0.0,0.0,0.0,0.0,0.0,0.0,0.0,0.0,16,90.84,10.660788177339901,0.6499384236453201,0.625,27.014373716632445,0.634375,1.0,0.75,0.375,0.0,6.0,6.0,10.0,25.0,17.0,108.0,0.0,114.0,379.0,5.0,1.0,16.0,1.0,0.0,,2
00-0026153,2014,veteran,RB,6.5138301312824005,7.827420944982677,2.3818598896371324,50.986490401659125,205.98649910509516,1.3424724621500301,15.515030717611326,11.713516910984113,91.72116346554135,0.3454716391515791,0.33931470278372977,4.040021140548875,0.7549786477501419,7.830369321406083,0.024236501807748948,0.0006159582200434282,0.00018343280221145276,0.00020095516446675405,3.565130879858219e-08,1.3669500065344679e-11,0.1675898631236876,45.0765599147979,45.244149777921585,veteran,Jonathan Stewart,RB,13.0,137.0,31.0,25.0,181.0,1.0,175.0,809.0,3.0,0.0,0.0,0.0,0.0,0.0,0.0,1.0,0.0,3.5,0.0,3.5,0.0,0.0,0.0,2.0,1.0,0.0,0.0,0.0,0.0,16,25.9,7.258333333333333,0.6138392857142857,0.375,27.449691991786448,0.525,1.0,1.0,0.1875,0.4375,3.0,10.0,6.0,7.0,7.0,44.0,0.0,48.0,180.0,0.0,0.0,0.0,0.0,0.0,,2
00-0026162,2014,veteran,RB,11.691591548340567,5.003457116668166,1.8583349464560877,58.498376937721986,232.46549557068803,1.5430924138738515,21.726893153971915,15.927903928497248,124.57869279982468,0.49356597740351627,0.9923632473744295,3.9738794089650273,0.7330962515266686,7.821411615682587,0.006486888038934623,6.861102298115546e-05,2.1508939271193648e-05,5.261367593935452e-05,1.802595205590285e-09,1.3669693865584709e-11,0.07816342046223843,53.90359465421524,53.98175807467748,veteran,,,0.0,0.0,0.0,0.0,0.0,0.0,0.0,0.0,0.0,0.0,0.0,0.0,0.0,0.0,0.0,0.0,0.0,0.0,0.0,0.0,0.0,0.0,0.0,0.0,0.0,0.0,0.0,0.0,0.0,16,27.2,4.147811447811447,0.9349747474747474,0.9375,27.318275154004105,0.9281250000000001,1.0,1.0,0.0,0.0625,0.0,1.0,15.0,13.0,9.0,63.0,0.0,48.0,184.0,0.0,0.0,0.0,0.0,0.0,,2
00-0026163,2014,veteran,RB,10.436472494503484,11.199772776290857,1.8180919176640433,116.88612052444844,428.5162719955206,3.2400653091227998,18.97446629117988,14.313110653611663,112.80801536797352,0.3963663914879163,1.181372790220973,3.6661005607238897,0.7543353490930594,7.881446465273319,0.05048096962912145,0.0021473757945701384,0.0006216029519550562,5.632151191739759e-05,2.0977931132200975e-09,1.3669684017679577e-11,0.5740223089100862,80.74482868637759,81.31885099528768,veteran,,,0.0,0.0,0.0,0.0,0.0,0.0,0.0,0.0,0.0,0.0,0.0,0.0,0.0,0.0,0.0,0.0,0.0,0.0,0.0,0.0,0.0,0.0,0.0,0.0,0.0,0.0,0.0,0.0,0.0,16,135.1,8.931300813008129,0.8551829268292683,0.9375,27.20328542094456,0.76875,1.0,0.9375,0.0625,0.0,1.0,1.0,15.0,21.0,18.0,134.0,0.0,217.0,687.0,8.0,0.0,0.0,0.0,0.0,,2
00-0026164,2014,veteran,RB,11.3655897359396,14.583778987156997,3.1946210580128183,165.75324876764319,659.0158887679278,4.359023361502708,36.308752307167,27.37023194809372,216.24447945716767,1.0760027624451889,1.262593710961363,3.975885200849075,0.7538191264889899,7.900717826113587,0.12769990301952647,0.011238489547100003,0.003148878661126813,0.0008779667435030102,9.522795144076734e-07,1.3669286754536407e-11,1.7245553701330183,131.29612211832105,133.02067748845408,veteran,Chris Johnson,RB,16.0,104.4,34.0,24.0,151.0,1.0,155.0,663.0,1.0,0.0,0.0,0.0,0.0,0.0,0.0,1.0,0.0,1.0,0.0,1.0,0.0,0.0,0.0,1.0,0.0,0.0,0.0,0.0,0.0,16,222.7,13.3178125,1.0,1.0,28.93908281998631,1.0,1.0,1.0,0.0,0.0,0.0,0.0,16.0,52.0,42.0,345.0,4.0,279.0,1077.0,6.0,0.0,0.0,0.0,0.0,,2
00-0026184,2014,veteran,RB,11.08918115783218,16.742252571676218,4.739317847281064,185.65787175749927,799.9411944242106,5.00693224970302,52.55515417304694,39.51077448254801,307.81659804867996,1.2619117114289617,1.0168415229015262,4.308684500429208,0.7517963766684415,7.790700184443187,0.21802128176277766,0.031718092821901245,0.00880121528327745,0.00573921939098533,6.297672796048847e-05,1.3669014576727826e-11,3.2051563313773617,166.1105472095519,169.31570354092926,veteran,Matt Forte,RB,16.0,299.6,130.0,102.0,808.0,4.0,266.0,1038.0,6.0,0.0,0.0,0.0,0.0,0.0,0.0,2.0,1.0,3.0,0.0,4.0,1.0,0.0,0.0,3.0,0.0,0.0,0.0,0.0,0.0,16,305.3,17.159933774834435,0.9515728476821191,1.0,28.725530458590008,0.9437500000000001,1.0,1.0,0.0,0.0,0.0,0.0,16.0,94.0,74.0,594.0,3.0,289.0,1339.0,9.0,0.0,0.0,0.0,0.0,,2
00-0026195,2014,veteran,RB,11.77454976481652,14.471403112902735,4.702674517602676,170.39425611959396,652.8197708084355,4.6338174341156195,55.37187513524723,41.71746480874496,336.4942712018956,0.8482025097139603,0.9637768155972838,3.831231085338014,0.753405311032884,8.066028766238894,0.11371915832872406,0.009069330812927353,0.002550054252089578,0.006636786280568537,8.721055413622398e-05,1.3668993436051591e-11,1.638909769004067,150.75470263718847,152.39361240619255,veteran,,,0.0,0.0,0.0,0.0,0.0,0.0,0.0,0.0,0.0,0.0,0.0,0.0,0.0,0.0,0.0,0.0,0.0,0.0,0.0,0.0,0.0,0.0,0.0,0.0,0.0,0.0,0.0,0.0,0.0,16,150.1,13.68355987055016,0.966626213592233,0.9375,27.60848733744011,0.9656250000000001,1.0,1.0,0.0625,0.0,1.0,1.0,15.0,73.0,58.0,321.0,0.0,214.0,660.0,4.0,0.0,0.0,0.0,0.0,,2
00-0026204,2014,veteran,RB,2.251197680573487,6.175112333861172,2.7575624483973065,13.901398563269002,56.392814528096636,0.38155881669077996,6.207818187868562,4.5809433208437875,35.979449091295045,0.17731314920462807,0.15800651198989818,4.056628854387404,0.7379312960221605,7.8541572273083275,0.012502189244677135,0.00020363511445095959,6.222771147988942e-05,0.0003726139866833185,1.4105753106457193e-07,1.3669410756786168e-11,0.02995201166190874,14.564916793753715,14.594868805415624,veteran,,,0.0,0.0,0.0,0.0,0.0,0.0,0.0,0.0,0.0,0.0,0.0,0.0,0.0,0.0,0.0,0.0,0.0,0.0,0.0,0.0,0.0,0.0,0.0,0.0,0.0,0.0,0.0,0.0,0.0,16,0.0,7.688,0.5275,0.0,27.707049965776864,0.234375,0.0,0.5625,0.0,1.0,0.0,16.0,0.0,0.0,0.0,0.0,0.0,0.0,0.0,0.0,0.0,0.0,0.0,0.0,,2
00-0026213,2014,veteran,RB,10.518237017967522,18.70264213877517,4.908172685410101,196.71882287786423,900.9357111596861,5.504417970563641,51.62532363025758,36.79601004262632,280.4565184694856,2.0898457486056015,1.1675243123167574,4.579814468079881,0.7127511743298824,7.621927435735312,0.3166402049375602,0.07017495620357163,0.01966483761746688,0.0046952599357276805,4.0179824603732474e-05,1.3669043758491365e-11,4.901370592554056,179.76776167461227,184.66913226716633,veteran,Jamaal Charles,RB,15.0,232.9,59.0,40.0,291.0,5.0,206.0,1033.0,9.0,0.0,0.0,0.0,0.0,0.0,0.0,3.0,0.0,2.5,0.0,2.5,0.0,0.0,0.0,1.0,1.0,0.0,0.0,0.0,0.0,16,351.0,19.97415730337078,0.9417134831460673,0.9375,27.679671457905545,0.8343750000000001,1.0,1.0,0.0,0.0625,0.0,1.0,15.0,104.0,70.0,693.0,7.0,259.0,1287.0,12.0,0.0,0.0,0.0,0.0,,2
00-0026262,2014,veteran,RB,8.862441310134127,2.416216404055205,1.1504390260220843,21.41357607352258,84.56763286192385,0.5672493161483407,10.19569834900859,7.294944534749091,58.09983782117775,0.19527503644034847,0.4794523061151862,3.9492531547073018,0.7154923856155904,7.964397473403968,0.0008420141725030982,2.373927944812631e-06,8.055645610623109e-07,5.519811694212349e-06,1.1895103288559502e-11,1.3670019897584865e-11,0.0075570573266377505,21.530460838986468,21.538017896313104,veteran,,,0.0,0.0,0.0,0.0,0.0,0.0,0.0,0.0,0.0,0.0,0.0,0.0,0.0,0.0,0.0,0.0,0.0,0.0,0.0,0.0,0.0,0.0,0.0,0.0,0.0,0.0,0.0,0.0,0.0,16,21.0,2.0454545454545454,0.8060770750988142,0.875,29.779603011635867,0.790625,1.0,0.875,0.0,0.125,0.0,2.0,14.0,9.0,5.0,15.0,0.0,46.0,170.0,0.0,0.0,0.0,0.0,0.0,,2
00-0026316,2014,veteran,RB,0.9054111168708516,2.6014553914236553,1.4984158211268501,2.35538663143859,9.465321930423126,0.06323178158738288,1.3566823421434155,1.0078267206930918,7.91920019170468,0.029148351774131803,0.05877732043855813,4.018585231012383,0.7428612353727782,7.857700167205898,0.001079284922153953,3.570949830121872e-06,1.2001580344125199e-06,2.075237909908248e-05,2.2706353768505393e-10,1.366982839503529e-11,0.001003009374023203,2.679091731851298,2.680094741225321,veteran,Jalen Parmele,RB,1.0,0.0,0.0,0.0,0.0,0.0,1.0,0.0,0.0,0.0,0.0,0.0,0.0,0.0,0.0,0.0,0.0,0.0,0.0,0.0,0.0,0.0,0.0,0.0,0.0,0.0,0.0,0.0,0.0,16,0.0,2.1636363636363636,0.6875,0.0,28.670773442847366,0.20625,0.0,0.6875,0.0,1.0,0.0,16.0,0.0,0.0,0.0,0.0,0.0,0.0,0.0,0.0,0.0,0.0,0.0,0.0,,2
00-0026367,2014,veteran,RB,6.452077336838485,7.333944115257616,2.271946128214,47.31917461569364,182.11270543334152,1.264293919958249,14.658772124367493,10.551781235615156,83.60484360049738,0.2549438588203255,0.6258297881867503,3.8486027474566926,0.7198270868864094,7.923291976363961,0.017553931542901424,0.0003585998950671015,0.00010814235403887756,0.0001343669044923439,1.4545901483325976e-08,1.3669558277144392e-11,0.11899246754020663,39.711412617489415,39.830405085029625,veteran,Peyton Hillis,RB,8.0,25.2,16.0,10.0,87.0,0.0,26.0,115.0,0.0,0.0,0.0,0.0,0.0,0.0,0.0,0.0,0.0,0.0,0.0,0.0,0.0,0.0,0.0,0.0,0.0,0.0,0.0,0.0,0.0,16,50.8,6.1000000000000005,0.6260135135135135,0.4375,28.61054072553046,0.578125,1.0,0.8125,0.0625,0.5,1.0,9.0,7.0,21.0,13.0,96.0,0.0,73.0,247.0,2.0,0.0,0.0,0.0,0.0,,2
00-0026373,2014,veteran,RB,7.222751565840547,2.302329364416422,1.5855168075577342,16.629153021919382,69.25477460600884,0.4464186303858644,11.451794004454129,8.64521261105692,68.80805766453082,0.21136971219768394,0.3407453560060722,4.164660371741246,0.7549221202978676,7.959093750514333,0.000853098288188413,2.4255339346488984e-06,8.226594586084164e-07,3.0973372840661356e-05,5.539290761434383e-10,1.3669770485321581e-11,0.006423598446140227,21.394128876071573,21.400552474517713,veteran,Justin Forsett,RB,16.0,231.4,59.0,44.0,263.0,0.0,235.0,1266.0,8.0,0.0,0.0,0.0,0.0,0.0,0.0,0.0,0.0,6.5,0.0,6.5,0.0,0.0,0.0,5.0,1.0,0.0,0.0,0.0,0.0,16,18.8,2.879090909090909,0.7522727272727272,0.5,28.88158795345654,0.6875000000000001,1.0,1.0,0.125,0.375,2.0,8.0,8.0,16.0,15.0,82.0,0.0,6.0,31.0,0.0,0.0,0.0,0.0,0.0,,2
00-0026432,2014,veteran,RB,1.6617864682655892,4.459167422674305,1.9341606923101895,7.410184082730903,29.84695352212018,0.1992414936925821,3.214162065932277,2.3280991187019286,18.25628841431595,0.08184328490531621,0.1374805787878633,4.027828889119927,0.7243253672171807,7.841714413128189,0.00486546208840911,4.265849540993561e-05,1.3523423501232014e-05,6.085073963729717e-05,2.492130245575794e-09,1.3669672832550326e-11,0.008337766303606485,7.38592126700624,7.394259033309846,veteran,,,0.0,0.0,0.0,0.0,0.0,0.0,0.0,0.0,0.0,0.0,0.0,0.0,0.0,0.0,0.0,0.0,0.0,0.0,0.0,0.0,0.0,0.0,0.0,0.0,0.0,0.0,0.0,0.0,0.0,16,0.0,3.7315789473684213,0.819078947368421,0.0,29.201916495550993,0.35624999999999996,0.0,1.0,0.0,1.0,0.0,16.0,0.0,0.0,0.0,0.0,0.0,0.0,0.0,0.0,0.0,0.0,0.0,0.0,,2
00-0026566,2014,veteran,RB,3.11422689704553,5.616130441055441,1.8619686413059306,17.48990447685103,68.95836937806723,0.46852171033148116,5.79859282421025,4.367214596111877,34.16664457874311,0.11003998667003487,0.30831635131620183,3.942752773140522,0.7531507606255623,7.823440737068797,0.008804061590037696,0.00011375863800941123,3.524098205889066e-05,6.046112766342473e-05,2.4567347502227526e-09,1.3669673761423534e-11,0.02835704878212351,15.350846173113665,15.379203221895787,veteran,,,0.0,0.0,0.0,0.0,0.0,0.0,0.0,0.0,0.0,0.0,0.0,0.0,0.0,0.0,0.0,0.0,0.0,0.0,0.0,0.0,0.0,0.0,0.0,0.0,0.0,0.0,0.0,0.0,0.0,16,4.6,5.0915584415584405,0.8068181818181818,0.125,29.806981519507186,0.48125000000000007,1.0,1.0,0.0,0.875,0.0,14.0,2.0,5.0,4.0,14.0,0.0,10.0,12.0,0.0,0.0,0.0,0.0,0.0,,2
00-0026579,2014,veteran,RB,2.8113340967190688,3.366064530182485,1.2817066052564097,9.463131985458674,37.82994188019451,0.2523954172177092,3.6033054813473924,2.6928793234417294,21.21402249888489,0.0828071916806352,0.23670899397640766,3.9976132572519445,0.7473358385464378,7.8778214508964925,0.00216499822552485,1.1227495760453897e-05,3.6729596984557918e-06,1.0473784211219387e-05,4.952671796864771e-11,1.3669927273680581e-11,0.0061839771192951495,8.788633765066056,8.794817742185352,veteran,,,0.0,0.0,0.0,0.0,0.0,0.0,0.0,0.0,0.0,0.0,0.0,0.0,0.0,0.0,0.0,0.0,0.0,0.0,0.0,0.0,0.0,0.0,0.0,0.0,0.0,0.0,0.0,0.0,0.0,16,0.0,3.2661971830985923,0.4058098591549296,0.0625,27.72621492128679,0.221875,1.0,0.625,0.0,0.9375,0.0,15.0,1.0,0.0,0.0,0.0,0.0,0.0,0.0,0.0,0.0,0.0,0.0,0.0,,2
00-0026745,2014,veteran,RB,1.3028349336564133,2.9167546512156712,1.7837927911989366,3.800049852508604,15.102861465826246,0.10213216767028761,2.323987562778455,1.7325297453616304,13.677825750232659,0.047991566945452306,0.08398197215257344,3.9743850875682822,0.7454987165638252,7.894713373234287,0.0014328869475676409,5.691858133442565e-06,1.8920740471567249e-06,4.9032509853139235e-05,1.5407085394875735e-09,1.366970405937352e-11,0.0019467529322969468,4.477112057675998,4.479058810608295,veteran,,,0.0,0.0,0.0,0.0,0.0,0.0,0.0,0.0,0.0,0.0,0.0,0.0,0.0,0.0,0.0,0.0,0.0,0.0,0.0,0.0,0.0,0.0,0.0,0.0,0.0,0.0,0.0,0.0,0.0,16,0.0,3.3086956521739133,0.5081521739130435,0.0,28.947296372347708,0.21562499999999998,0.0,0.5625,0.0,1.0,0.0,16.0,0.0,0.0,0.0,0.0,0.0,0.0,0.0,0.0,0.0,0.0,0.0,0.0,,2
00-0026796,2014,veteran,RB,7.831656913299064,17.930293335865322,3.8763981898806747,140.42390576130978,573.9391848242001,3.856126241031385,30.358620682478964,21.696109483535693,169.94716282528424,0.770023825151102,0.6442868108210301,4.087190010223561,0.7146605806125206,7.833070853290556,0.22607506250057688,0.03415725987883541,0.00947835925627284,0.0016835720171840011,4.066268084339941e-06,1.3669192496707045e-11,2.3334996795199063,111.70501628216914,114.03851596168904,veteran,Arian Foster,RB,13.0,264.5,59.0,38.0,327.0,5.0,260.0,1246.0,8.0,1.0,1.0,5.0,1.0,0.0,0.0,2.0,0.0,10.0,0.0,10.0,0.0,0.0,0.0,7.0,2.0,0.0,0.0,0.0,0.0,16,99.5,16.663228699551574,0.7698991031390136,0.5,28.021902806297057,0.6968749999999999,1.0,1.0,0.0625,0.4375,1.0,8.0,8.0,35.0,22.0,183.0,1.0,121.0,542.0,1.0,0.0,0.0,0.0,0.0,,2
00-0026899,2014,veteran,RB,8.889267313407451,10.082979846068683,1.4824731716862842,89.63030316740445,351.7091960355822,2.480646909654857,13.17810030807436,9.654336001020473,76.20900636411868,0.23302852587366557,0.4711817445018379,3.9239987326461154,0.7326045314061815,7.893759483413806,0.04553448628659748,0.0017978986901453226,0.0005224956518144556,1.8902652071136744e-05,1.844408975105371e-10,1.3669841895165558e-11,0.4381984641366237,62.958677364647784,63.39687582878441,veteran,Shonn Greene,RB,13.0,51.0,3.0,1.0,13.0,0.0,94.0,392.0,2.0,0.0,0.0,0.0,0.0,0.0,0.0,1.0,0.0,0.0,0.0,0.0,0.0,0.0,0.0,0.0,0.0,0.0,0.0,0.0,0.0,16,60.400000000000006,8.62377358490566,0.857311320754717,0.6875,29.02943189596167,0.8281250000000001,1.0,1.0,0.25,0.0625,4.0,5.0,11.0,7.0,6.0,39.0,0.0,77.0,295.0,4.0,0.0,0.0,0.0,0.0,,2
00-0026932,2014,veteran,RB,9.260365568793162,0.9143674689110192,0.39196621674086196,8.467377026328155,35.104829196787286,0.22866770153417687,3.629750457637196,2.719626282292517,21.33719392894347,0.07783581157215072,0.42589542866262403,4.145891825489004,0.7492598496875377,7.845634552022796,7.938161748127618e-05,4.8957836349248395e-08,1.8204414952381716e-08,7.471986298095595e-08,9.357622968839299e-14,1.3670642050418405e-11,0.0007368121953232112,7.991245675032051,7.991982487227374,veteran,Cedric Peerman,RB,12.0,8.5,5.0,3.0,27.0,0.0,15.0,43.0,0.0,0.0,0.0,0.0,0.0,0.0,0.0,0.0,0.0,0.0,0.0,0.0,0.0,0.0,0.0,0.0,0.0,0.0,0.0,0.0,0.0,16,1.7000000000000002,1.247863247863248,0.7323717948717949,0.75,27.89322381930185,0.73125,1.0,0.75,0.0,0.25,0.0,4.0,12.0,0.0,0.0,0.0,0.0,8.0,17.0,0.0,0.0,0.0,0.0,0.0,,2
00-0026956,2014,veteran,RB,3.9733587201391245,5.792392985594888,2.31973608225767,23.015255179786145,89.97165227507475,0.6243904835625816,9.217143590859882,6.658763259842042,52.10692531419519,0.20535463668452586,0.2204190495561635,3.9092181065233254,0.7224324102366333,7.8253157952684536,0.009381535545970576,0.00012639434610633678,3.905863162081981e-05,0.00014237632908133328,1.6547936829977843e-08,1.3669549903751075e-11,0.03890572005854718,22.074872011218332,22.11377773127688,veteran,,,0.0,0.0,0.0,0.0,0.0,0.0,0.0,0.0,0.0,0.0,0.0,0.0,0.0,0.0,0.0,0.0,0.0,0.0,0.0,0.0,0.0,0.0,0.0,0.0,0.0,0.0,0.0,0.0,0.0,16,4.0,5.138686131386862,0.8097627737226277,0.0625,27.351129363449694,0.428125,1.0,0.875,0.0,0.9375,0.0,15.0,1.0,3.0,2.0,11.0,0.0,6.0,19.0,0.0,0.0,0.0,0.0,0.0,,2
00-0026988,2014,veteran,RB,10.686748510215399,15.096625670715627,3.880613786883896,161.33384189579976,654.8771294041743,4.526148580707715,41.471143605702814,31.88642566375023,245.0407296818432,1.1397917146186136,0.6383051012226169,4.059142965349688,0.7688822369336696,7.684797671142405,0.14696725740386446,0.014636111796075827,0.004085280665659897,0.0022138322301963062,7.490503041536047e-06,1.366915282867772e-11,1.9163162644077905,138.6540303099896,140.57034657439738,veteran,Knowshon Moreno,RB,3.0,23.099999999999998,1.0,1.0,8.0,0.0,31.0,148.0,1.0,0.0,0.0,0.0,0.0,0.0,0.0,0.0,0.0,1.0,0.0,1.0,0.0,0.0,0.0,1.0,0.0,0.0,0.0,0.0,0.0,16,271.1,15.17061224489796,0.8538265306122448,1.0,27.129363449691994,0.7656250000000001,1.0,1.0,0.0,0.0,0.0,0.0,16.0,74.0,60.0,548.0,3.0,241.0,1038.0,10.0,0.0,0.0,0.0,0.0,,2
00-0027003,2014,veteran,RB,11.246513168703355,8.240663827973188,1.9586387991519327,92.67873426015787,393.94692956613125,2.5910200266211763,22.02785704739554,16.483492064081414,129.45423191972847,0.6015388404081375,0.48385342584542274,4.250672311301591,0.7483021171153976,7.853568371098836,0.0323592731681211,0.0010036832314284407,0.00029555709962846016,7.603982778449668e-05,4.093458637061908e-09,1.3669640608604438e-11,0.38836412274799426,78.76950853111171,79.15787265385971,veteran,Donald Brown,RB,13.0,57.9,41.0,29.0,211.0,0.0,85.0,223.0,0.0,0.0,0.0,0.0,0.0,0.0,0.0,0.0,0.0,0.0,0.0,0.0,0.0,0.0,0.0,0.0,0.0,0.0,0.0,0.0,0.0,16,136.6,8.177941176470588,0.8841911764705882,1.0,27.392197125256672,0.8500000000000001,1.0,1.0,0.0,0.0,0.0,0.0,16.0,35.0,27.0,214.0,2.0,102.0,537.0,6.0,0.0,0.0,0.0,0.0,,2
00-0027007,2014,veteran,RB,3.429129507305113,11.589584735340859,1.2149931324190621,39.74218699337026,155.58887451553176,1.112109786694153,4.1663688015512745,3.0786324755020353,24.19965858418273,0.08951453090818419,0.298682128457984,3.91495502100795,0.7389246180884804,7.860522091139336,0.06648720780334821,0.003467282544016463,0.0009933230920110797,7.709960916497507e-06,2.5035133389965918e-11,1.366997157509258e-11,0.252666793186774,26.130551196420523,26.383217989607296,veteran,,,0.0,0.0,0.0,0.0,0.0,0.0,0.0,0.0,0.0,0.0,0.0,0.0,0.0,0.0,0.0,0.0,0.0,0.0,0.0,0.0,0.0,0.0,0.0,0.0,0.0,0.0,0.0,0.0,0.0,16,0.0,9.5,0.675,0.0,26.067077344284737,0.28125,0.0,0.875,0.0,1.0,0.0,16.0,0.0,0.0,0.0,0.0,0.0,0.0,0.0,0.0,0.0,0.0,0.0,0.0,,2
00-0027029,2014,veteran,RB,12.623805679871555,19.063956245666517,4.0426536776902005,240.6596791348678,1078.923145529767,6.590272237719681,51.033674458179185,39.093550414172334,300.248158196285,1.4900679662227332,1.1354557796447406,4.483190326723277,0.766034404326667,7.680247892947527,0.31523959650773026,0.0694833432918767,0.019465399677030308,0.0026561179676859088,1.1248346534622835e-05,1.3669126427989313e-11,5.820437903322425,203.67503524405637,209.4954731473788,veteran,LeSean McCoy,RB,16.0,190.9,37.0,28.0,155.0,0.0,312.0,1319.0,5.0,0.0,0.0,0.0,0.0,0.0,0.0,3.0,0.0,5.5,0.0,5.5,0.0,0.0,0.0,4.0,1.0,0.0,0.0,0.0,0.0,16,320.6,18.81945392491468,0.9289675767918089,1.0,26.138261464750173,0.915625,1.0,1.0,0.0,0.0,0.0,0.0,16.0,64.0,52.0,539.0,2.0,314.0,1607.0,9.0,0.0,0.0,0.0,0.0,,2
00-0027080,2014,veteran,RB,3.9758356924288982,2.7286639212115142,1.5826477033622408,10.848719410595733,45.71288425535144,0.29071150617992214,6.292347227568221,4.739419234836561,36.824556844435605,0.15092870753775045,0.23565392622837533,4.21366638081768,0.7532037033926028,7.769845843929758,0.0014009211749024075,5.484441736794859e-06,1.824720442908764e-06,2.7133620584920277e-05,4.125236479244998e-10,1.3669789624518759e-11,0.005724931231676345,12.80198715724627,12.807712088477945,veteran,,,0.0,0.0,0.0,0.0,0.0,0.0,0.0,0.0,0.0,0.0,0.0,0.0,0.0,0.0,0.0,0.0,0.0,0.0,0.0,0.0,0.0,0.0,0.0,0.0,0.0,0.0,0.0,0.0,0.0,16,9.0,4.106603773584907,0.5636792452830189,0.125,27.277207392197127,0.33124999999999993,1.0,0.75,0.0,0.875,0.0,14.0,2.0,3.0,2.0,19.0,0.0,7.0,61.0,0.0,0.0,0.0,0.0,0.0,,2
00-0027094,2014,veteran,RB,6.3542101818068275,11.389792763047852,2.6337900637682212,72.37313714362838,286.8943957339479,2.0239295663304175,16.735655639937686,12.22750980996365,97.76183656401462,0.2904470426648532,0.7458612082316598,3.9641005911432377,0.7306262791870625,7.995236813006102,0.0655989604167497,0.0033864804802871762,0.0009706589576712202,0.00030934607286543407,9.319066190346881e-08,1.3669437673038398e-11,0.4634092757515427,56.97391537228638,57.43732464803792,veteran,,,0.0,0.0,0.0,0.0,0.0,0.0,0.0,0.0,0.0,0.0,0.0,0.0,0.0,0.0,0.0,0.0,0.0,0.0,0.0,0.0,0.0,0.0,0.0,0.0,0.0,0.0,0.0,0.0,0.0,16,85.5,10.575000000000001,0.5506756756756757,0.5,27.71252566735113,0.4625,1.0,0.625,0.0,0.5,0.0,8.0,8.0,29.0,20.0,103.0,0.0,139.0,492.0,3.0,0.0,0.0,0.0,0.0,,2
00-0027140,2014,veteran,RB,10.958408228512067,3.938549648013251,3.5723277753846197,43.16023487119171,178.29870260055748,1.1395319593731155,39.14702608871702,27.734091947117655,220.25095879804616,0.8255653143659889,0.9827671531287677,4.131087403316404,0.7084597405755731,7.941524071457344,0.003682809053657702,2.694309188541223e-05,8.63428947807007e-06,0.0011513788088449953,1.7426881428155405e-06,1.3669247513973092e-11,0.0536357662197907,63.54706144959627,63.60069721581606,veteran,Chris Ogbonnaya,RB,3.0,11.0,1.0,0.0,0.0,0.0,14.0,50.0,1.0,0.0,0.0,0.0,0.0,0.0,0.0,0.0,0.0,0.0,0.0,0.0,0.0,0.0,0.0,0.0,0.0,0.0,0.0,0.0,0.0,16,90.3,4.875,0.9049295774647887,1.0,28.28473648186174,0.8875,1.0,1.0,0.0,0.0,0.0,0.0,16.0,75.0,48.0,343.0,2.0,49.0,240.0,0.0,0.0,0.0,0.0,0.0,,2
00-0027155,2014,veteran,RB,8.328207449249312,9.602527595121318,2.8381839312879102,79.97184184931145,320.241533109925,2.1976105258646146,23.636984558891672,17.64822415090178,138.76325790742598,0.3614423101396271,0.4731632824378855,4.004428630183941,0.7466360231750855,7.862732064196699,0.04204710472684063,0.0015682176758241902,0.0004571444351158067,0.000456926252613175,2.2220231865773658e-07,1.3669381249735056e-11,0.3811902140489957,69.13258162833566,69.51377184238466,veteran,Rashad Jennings,RB,11.0,126.0,41.0,30.0,226.0,0.0,167.0,639.0,4.0,0.0,0.0,0.0,0.0,0.0,0.0,1.0,0.0,2.5,0.0,2.5,0.0,0.0,0.0,1.0,1.0,0.0,0.0,0.0,0.0,16,160.0,9.49688888888889,0.8541666666666666,0.9375,29.43463381245722,0.703125,1.0,0.9375,0.0,0.0625,0.0,1.0,15.0,47.0,36.0,292.0,0.0,163.0,733.0,6.0,0.0,0.0,0.0,0.0,,2
00-0027218,2014,veteran,RB,10.473754001800991,9.87693338977787,3.9635845047150307,103.44857061670778,417.69164716875343,2.9375882780552294,41.51360906773545,31.184306171711917,233.78040100969548,0.5109207483079775,1.1861187574890915,4.03767441810639,0.7511827295196188,7.496732482115112,0.04654963326810312,0.0018673589009444596,0.0005422234003565351,0.0019366382133372444,5.557392292423126e-06,1.3669172211530801e-11,0.5486162060481813,99.05817454690192,99.6067907529501,veteran,Joique Bell,RB,15.0,181.20000000000002,53.0,34.0,322.0,1.0,223.0,860.0,7.0,0.0,0.0,0.0,0.0,0.0,0.0,1.0,0.0,0.0,0.0,0.0,0.0,0.0,0.0,0.0,0.0,0.0,0.0,0.0,0.0,16,190.2,10.557352941176468,1.0,1.0,28.076659822039698,0.8500000000000001,1.0,1.0,0.0,0.0,0.0,0.0,16.0,69.0,53.0,547.0,0.0,166.0,650.0,8.0,0.0,0.0,0.0,0.0,,2
00-0027325,2014,veteran,RB,11.151479406431516,7.851828934700444,0.7177509681526368,87.55950866813511,372.9782181074874,2.46755566079147,8.003985140300413,5.774281305789842,45.036836206969376,0.16276988738188972,1.0095745693901044,4.259711181353655,0.7214257903498701,7.7995570049230505,0.02840311517613024,0.0008048624852162342,0.00023821342597978804,6.708798363077385e-07,1.089341376273944e-13,1.3670324656121282e-11,0.3355202109461538,58.45145023460055,58.78697044554671,veteran,LeGarrette Blount,RB,15.0,94.1,12.0,10.0,54.0,0.0,125.0,547.0,5.0,0.0,0.0,0.0,0.0,0.0,0.0,1.0,0.0,1.0,0.0,1.0,0.0,0.0,0.0,1.0,0.0,0.0,0.0,0.0,0.0,16,122.5,6.821942446043166,0.900179856115108,1.0,27.73990417522245,0.86875,1.0,1.0,0.0,0.0,0.0,0.0,16.0,5.0,2.0,38.0,0.0,153.0,772.0,7.0,0.0,0.0,0.0,0.0,,2
00-0027531,2014,veteran,RB,10.288883726407082,9.409476934567389,0.7509300986448566,96.8130141060732,410.20405108232103,2.5675889500891294,7.72623247161633,5.5385258231561325,43.63629452058354,0.16144487073262148,0.4862875848445008,4.2370755096301504,0.7168469035202963,7.878683951990201,0.04651329520307894,0.0018648523180401937,0.0005415117639777773,8.234592836666825e-07,1.719289037111752e-13,1.3670295022610803e-11,0.5185023349902605,63.554925227110026,64.07342756210029,veteran,Chris Ivory,RB,16.0,145.4,27.0,18.0,123.0,1.0,198.0,821.0,6.0,0.0,0.0,0.0,0.0,0.0,0.0,1.0,0.0,2.0,0.0,2.0,0.0,0.0,0.0,2.0,0.0,0.0,0.0,0.0,0.0,16,106.3,6.939269406392693,0.7988013698630138,0.9375,26.444900752908968,0.6843750000000001,1.0,0.9375,0.0625,0.0,1.0,1.0,15.0,7.0,2.0,10.0,0.0,182.0,833.0,3.0,0.0,0.0,0.0,0.0,,2
00-0027666,2014,veteran,RB,2.488496305209022,5.4027661251697445,1.281192920066924,13.444763540393375,53.611200240317835,0.35847306420005415,3.1882438478464987,2.3337053514478483,18.333436533908046,0.06682912002651176,0.15388333115776465,3.98751529390968,0.7319720394110227,7.855934564547253,0.008143987343780936,9.997812899135472e-05,3.106605497367906e-05,9.384011321946063e-06,3.877784239754253e-11,1.3669943161113817e-11,0.020817443037887472,10.605362796190379,10.626180239228267,veteran,,,0.0,0.0,0.0,0.0,0.0,0.0,0.0,0.0,0.0,0.0,0.0,0.0,0.0,0.0,0.0,0.0,0.0,0.0,0.0,0.0,0.0,0.0,0.0,0.0,0.0,0.0,0.0,0.0,0.0,16,0.0,4.041379310344828,0.6056034482758621,0.0,27.581108829568787,0.271875,0.0,0.625,0.0,1.0,0.0,16.0,0.0,0.0,0.0,0.0,0.0,0.0,0.0,0.0,0.0,0.0,0.0,0.0,,2
00-0027712,2014,veteran,RB,3.797177255545691,3.2577298297697106,1.2204626892089847,12.370177614314281,50.55362990569899,0.3312023846463183,4.634313164706486,3.4247827321724538,26.806740019073505,0.0988091442611807,0.3045344075133241,4.0867343608066165,0.7390054600225451,7.827281937406026,0.002101726998759439,1.0692357733950942e-05,3.5019213858859036e-06,7.722733120004389e-06,2.5127582137416373e-11,1.366997133574084e-11,0.008097450789412675,11.419428716981821,11.427526167771234,veteran,Joe McKnight,RB,1.0,21.7,7.0,6.0,64.0,2.0,1.0,3.0,0.0,0.0,0.0,0.0,0.0,0.0,0.0,0.0,0.0,0.0,0.0,0.0,0.0,0.0,0.0,0.0,0.0,0.0,0.0,0.0,0.0,16,0.0,1.958139534883721,0.8968023255813954,0.0,26.376454483230663,0.403125,0.0,0.9375,0.0,1.0,0.0,16.0,0.0,0.0,0.0,0.0,0.0,0.0,0.0,0.0,0.0,0.0,0.0,0.0,,2
00-0027772,2014,veteran,RB,10.476246638708421,2.1205473519451936,0.41058793645198777,22.215377068037878,86.24023813363883,0.6239668012813698,4.301420489149364,3.2164128647105175,25.24946263009892,0.093492474484684,0.4732750449811546,3.882006497999802,0.7477559733637168,7.850193271867607,0.0005659752667387803,1.2354076716883045e-06,4.25723080079351e-07,8.806088206131816e-08,9.357622968839299e-14,1.3670618293439328e-11,0.005958552934363318,16.11538207336305,16.121340626297414,veteran,Anthony Dixon,RB,14.0,64.1,9.0,8.0,49.0,0.0,105.0,432.0,2.0,0.0,0.0,0.0,0.0,0.0,0.0,0.0,0.0,0.0,0.0,0.0,0.0,0.0,0.0,0.0,0.0,0.0,0.0,0.0,0.0,16,22.1,1.7512295081967213,0.8012295081967212,0.875,26.937713894592743,0.7625000000000001,1.0,0.875,0.0,0.125,0.0,2.0,14.0,3.0,3.0,30.0,0.0,28.0,56.0,2.0,0.0,0.0,0.0,0.0,,2
00-0027786,2014,veteran,RB,12.038190874593717,5.340516508949145,1.3406044648487367,64.2901571036487,259.1613673265726,1.6793530876499403,16.138452435181655,11.927672945050523,94.29694441890219,0.3036457334478612,0.768551232664345,4.031120454547221,0.7390840598227574,7.905728540119924,0.008127527057829171,9.964364921782927e-05,3.0964560769600254e-05,1.2439058984249384e-05,7.263602421609923e-11,1.3669902406592224e-11,0.10053527595652939,51.670558108330866,51.7710933842874,veteran,Jonathan Dwyer,RB,2.0,12.899999999999999,3.0,2.0,8.0,0.0,16.0,51.0,1.0,0.0,0.0,0.0,0.0,0.0,0.0,0.0,0.0,0.0,0.0,0.0,0.0,0.0,0.0,0.0,0.0,0.0,0.0,0.0,0.0,16,30.1,3.6734126984126982,0.8720238095238094,0.9375,25.100616016427104,0.7875,1.0,0.9375,0.0,0.0625,0.0,1.0,15.0,11.0,8.0,64.0,0.0,49.0,197.0,0.0,0.0,0.0,0.0,0.0,,2
00-0027791,2014,veteran,RB,8.568124908753575,7.1711229169285335,1.3230667933631333,61.44307688826896,260.5282108678996,1.6511235666407265,11.33620154815938,8.444557502346273,66.2590025511249,0.2801716501958501,0.44932183539322607,4.240155670290675,0.7449194923424227,7.846355777992535,0.021685950375567004,0.0005109627671641504,0.00015282567868508246,1.1724122302151782e-05,6.366563310581007e-11,1.3669910966173077e-11,0.19509423460736844,47.59012772330859,47.78522195791596,veteran,James Starks,RB,14.0,68.3,29.0,18.0,140.0,0.0,85.0,333.0,2.0,0.0,0.0,0.0,0.0,0.0,0.0,0.0,0.0,0.0,0.0,0.0,0.0,0.0,0.0,0.0,0.0,0.0,0.0,0.0,0.0,16,88.2,6.805045871559634,0.7402522935779817,0.8125,28.514715947980836,0.6812499999999999,1.0,0.8125,0.1875,0.0,3.0,3.0,13.0,13.0,10.0,89.0,1.0,89.0,493.0,3.0,0.0,0.0,0.0,0.0,,2
00-0027861,2014,veteran,RB,12.154462187825892,12.148316752245252,2.7374099175119015,147.65625661089678,669.2739462376499,3.8748701643147436,33.271745334978,25.237864511343957,199.30448924189233,0.6964924331809681,1.0128512784416435,4.532648745127801,0.7585374394174578,7.897042523241561,0.11169981331667744,0.008775967686421898,0.002468968145264555,0.00042248739788799277,1.8660788538248954e-07,1.366939258571459e-11,1.5828083779956725,124.87924883171718,126.46205720971285,veteran,C.J. Spiller,RB,9.0,62.0,22.0,19.0,125.0,1.0,78.0,300.0,0.0,0.0,0.0,0.0,0.0,0.0,0.0,1.0,0.0,0.0,0.0,0.0,0.0,0.0,0.0,0.0,0.0,0.0,0.0,0.0,0.0,16,142.3,11.086084142394823,0.966626213592233,0.9375,27.04722792607803,0.9656250000000001,1.0,1.0,0.0625,0.0,1.0,1.0,15.0,40.0,33.0,185.0,0.0,202.0,933.0,2.0,0.0,0.0,0.0,0.0,,2
00-0027864,2014,veteran,RB,12.035583001077713,14.761725894938566,2.7778000099984013,177.6659772476913,736.3635657543092,4.633754113038923,33.43244258073026,25.019260404114185,198.11999936059297,0.6191601245019669,1.0327189206740617,4.144651537461869,0.7483527517829268,7.918699280495677,0.14638199734756327,0.01452572125624114,0.004054871764192672,0.0004305729532298763,1.9465767020213493e-07,1.3669389843389095e-11,2.1268221671119587,135.41003429744455,137.5368564645565,veteran,Ryan Mathews,RB,6.0,63.4,10.0,9.0,69.0,0.0,74.0,330.0,3.0,0.0,0.0,0.0,0.0,0.0,0.0,0.0,0.0,1.0,0.0,1.0,0.0,0.0,0.0,1.0,0.0,0.0,0.0,0.0,0.0,16,203.4,12.374482758620692,0.9198275862068965,1.0,26.89390828199863,0.90625,1.0,1.0,0.0,0.0,0.0,0.0,16.0,33.0,26.0,189.0,1.0,285.0,1255.0,6.0,0.0,0.0,0.0,0.0,,2
00-0027888,2014,veteran,RB,10.75251190939246,4.18951626074332,1.5826516722311308,45.04782348823591,194.46177885675513,1.2259553439221431,17.017480954085126,12.569219611831375,99.17411303697126,0.367822225587767,0.8404051926393542,4.316785225096129,0.7386063569422756,7.8902363153571535,0.004961286753236055,4.405453147081496e-05,1.3955408309997061e-05,2.660492799660094e-05,3.948374589368426e-10,1.3669792469938245e-11,0.05464302806698596,43.53005402706908,43.58469705513606,veteran,Toby Gerhart,RB,14.0,71.2,24.0,20.0,186.0,0.0,101.0,326.0,2.0,0.0,0.0,0.0,0.0,0.0,0.0,1.0,0.0,0.0,0.0,0.0,0.0,0.0,0.0,0.0,0.0,0.0,0.0,0.0,0.0,16,53.6,4.251079136690648,0.8732014388489208,0.8125,27.430527036276523,0.86875,1.0,0.9375,0.0625,0.125,1.0,3.0,13.0,19.0,13.0,88.0,0.0,36.0,283.0,2.0,0.0,0.0,0.0,0.0,,2
00-0027890,2014,veteran,RB,11.640320236744673,9.568625558633013,2.27332542285187,111.38186572798816,464.4500593209648,2.9832652953286702,26.46223592432876,19.46838961209506,159.43163754175302,0.4067740193351961,1.1860510247451839,4.169889382668666,0.7357046346259909,8.189256570184083,0.046615573774887176,0.0018719112736023114,0.0005435157996203277,0.00017569933977997556,2.6433850540828372e-08,1.3669519489699671e-11,0.5900037311475473,90.09049833081212,90.68050206195967,veteran,Ben Tate,RB,11.0,72.60000000000001,12.0,9.0,60.0,0.0,119.0,371.0,4.0,0.0,0.0,0.0,0.0,0.0,0.0,0.0,0.0,1.0,0.0,1.0,0.0,0.0,0.0,1.0,0.0,0.0,0.0,0.0,0.0,16,129.1,7.95245283018868,0.8389150943396227,0.875,26.028747433264886,0.828125,1.0,0.9375,0.0,0.125,0.0,2.0,14.0,49.0,34.0,140.0,0.0,181.0,771.0,4.0,0.0,0.0,0.0,0.0,,2
00-0027966,2014,veteran,RB,11.461920755212885,7.354484170138708,1.0343330712267058,84.29651475359746,344.92449055057756,2.284533834470031,11.855443696896467,8.669915937846092,68.33230489144752,0.2301216318497049,0.5707908061197876,4.091800136207381,0.7313025273036144,7.8815418028636195,0.02105733183391374,0.0004863529455624113,0.00014563189233491743,3.6053176889819736e-06,4.6072328193962e-12,1.3670081489781815e-11,0.2530990438551719,59.60698869880439,59.860087742659566,veteran,Mark Ingram,RB,13.0,182.9,36.0,29.0,145.0,0.0,226.0,964.0,9.0,0.0,0.0,0.0,0.0,0.0,0.0,1.0,0.0,5.5,0.0,5.5,0.0,0.0,0.0,4.0,1.0,0.0,0.0,0.0,0.0,16,55.9,6.02995951417004,0.8013663967611336,0.6875,24.695414099931554,0.7718750000000001,1.0,1.0,0.0625,0.25,1.0,5.0,11.0,11.0,7.0,68.0,0.0,78.0,386.0,1.0,0.0,0.0,0.0,0.0,,2
00-0027976,2014,veteran,RB,3.779184944606861,7.222466767112967,1.9401529489206593,27.295037669196713,107.87568428503684,0.7297214644889325,7.33219681479556,5.425428108044094,42.74335949782944,0.1569296773364484,0.378535149469001,3.9522086612387373,0.739945782292175,7.878338565477504,0.01812405613285109,0.00037828825876359926,0.0001139376739539514,6.991403318488859e-05,3.3951253940595956e-09,1.3669652754581753e-11,0.07176401250606201,22.337454984322953,22.409218996829015,veteran,,,0.0,0.0,0.0,0.0,0.0,0.0,0.0,0.0,0.0,0.0,0.0,0.0,0.0,0.0,0.0,0.0,0.0,0.0,0.0,0.0,0.0,0.0,0.0,0.0,0.0,0.0,0.0,0.0,0.0,16,0.0,4.06,0.3125,0.0,24.396988364134156,0.09375,0.0,0.3125,0.0,1.0,0.0,16.0,0.0,0.0,0.0,0.0,0.0,0.0,0.0,0.0,0.0,0.0,0.0,0.0,,2
00-0027994,2014,veteran,RB,8.410346241689275,7.361394823920218,4.463354835119617,61.91187929094829,252.9461110111919,1.6946957756628245,37.53835956287392,26.89968929409011,205.25016855058604,1.1587014915992806,0.5302437179540662,4.085582830114049,0.7165920303212813,7.630205921957609,0.021022616827406644,0.00048500864852367534,0.00014523869979815959,0.003019414888230099,1.4976861757228731e-05,1.3669107838660722e-11,0.2109524037040294,75.32936877088736,75.54032117459138,veteran,Shane Vereen,RB,16.0,139.8,77.0,52.0,447.0,3.0,96.0,391.0,2.0,0.0,0.0,0.0,0.0,0.0,0.0,0.0,0.0,0.0,0.0,0.0,0.0,0.0,0.0,0.0,0.0,0.0,0.0,0.0,0.0,16,114.5,10.00355029585799,0.5898668639053255,0.5,25.50034223134839,0.528125,1.0,0.75,0.0,0.5,0.0,8.0,8.0,69.0,47.0,427.0,3.0,44.0,208.0,1.0,0.0,0.0,0.0,0.0,,2
00-0027995,2014,veteran,RB,4.8279057237760306,12.203137578494752,3.1783799963057526,58.91559776324119,232.1476615008646,1.633538511940998,15.344918976499782,11.293933796592794,89.55416825953563,0.28643128635792275,0.4773214884151818,3.9403429705283735,0.7360047852901059,7.929404392874407,0.0778649969122205,0.004581138877866242,0.0013048559006050434,0.000774585293633254,7.202837996246742e-07,1.3669304884674418e-11,0.4254451078296667,48.38232568729958,48.807770795129244,veteran,,,0.0,0.0,0.0,0.0,0.0,0.0,0.0,0.0,0.0,0.0,0.0,0.0,0.0,0.0,0.0,0.0,0.0,0.0,0.0,0.0,0.0,0.0,0.0,0.0,0.0,0.0,0.0,0.0,0.0,16,0.9,10.664210526315788,0.780921052631579,0.0625,24.424366872005475,0.296875,1.0,0.875,0.0,0.9375,0.0,15.0,1.0,0.0,0.0,0.0,0.0,2.0,9.0,0.0,0.0,0.0,0.0,0.0,,2
00-0028000,2014,veteran,RB,11.551757672917159,7.051723959427893,1.279316503639075,81.45980635561493,313.925515508649,2.225001005896199,14.778354237002237,11.111585936262715,88.3712350898223,0.45991201212305494,0.762404683213537,3.853747382337234,0.7518825004506511,7.953071289438743,0.015760737777034444,0.0002995323898399187,9.070974850745859e-05,1.1154840519719479e-05,5.698578450803257e-11,1.3669918163857908e-11,0.1894789853050985,60.370136769666935,60.559615754972036,veteran,Daniel Thomas,RB,12.0,47.4,19.0,13.0,121.0,0.0,44.0,168.0,2.0,0.0,0.0,0.0,0.0,0.0,0.0,1.0,0.0,0.0,0.0,0.0,0.0,0.0,0.0,0.0,0.0,0.0,0.0,0.0,0.0,16,91.39999999999999,6.115579710144926,0.8709239130434783,0.9375,26.84188911704312,0.8624999999999999,1.0,0.9375,0.0625,0.0,1.0,1.0,15.0,17.0,15.0,63.0,2.0,109.0,406.0,4.0,0.0,0.0,0.0,0.0,,2
00-0028009,2014,veteran,RB,11.001658106827367,14.27614875878741,3.7250699117737893,157.06130772638699,697.4388476975947,4.354238426732968,40.98194559336481,31.50740733251382,253.17543253246117,0.6982521607149398,0.8955394841278911,4.440551640589848,0.768811896954327,8.035425760697192,0.1599531504993255,0.017205071596723902,0.004792874057937767,0.0022540139294937073,7.797327666649305e-06,1.3669150221947752e-11,2.17406203770926,139.33899624569415,141.5130582834034,veteran,DeMarco Murray,RB,16.0,337.6,64.0,57.0,416.0,0.0,392.0,1845.0,13.0,0.0,0.0,0.0,0.0,0.0,0.0,5.0,0.0,15.0,0.0,15.0,0.0,0.0,0.0,12.0,2.0,0.0,0.0,0.0,0.0,16,236.1,15.0,0.8060770750988142,0.875,26.55167693360712,0.790625,1.0,0.875,0.0625,0.0625,1.0,2.0,14.0,66.0,53.0,350.0,1.0,217.0,1121.0,9.0,0.0,0.0,0.0,0.0,,2
00-0028011,2014,veteran,RB,12.415171244400536,12.216238185063677,0.9303791212513941,151.66668902995036,630.8468217667058,4.280388805146765,11.550816112550947,8.453583214972813,66.81154347406287,0.22277433328576038,1.5844042617575962,4.159428980757465,0.7318602540808588,7.903340131049712,0.09032228994701996,0.005969952091877354,0.001691507443217184,2.292719595010227e-06,1.6813365871353039e-12,1.367014694853178e-11,1.2745728372055087,97.84279843864323,99.11737127584874,veteran,Stevan Ridley,RB,6.0,52.0,5.0,4.0,20.0,0.0,94.0,340.0,2.0,0.0,0.0,0.0,0.0,0.0,0.0,0.0,0.0,2.0,0.0,2.0,0.0,0.0,0.0,2.0,0.0,0.0,0.0,0.0,0.0,16,123.5,9.666433566433568,0.9012237762237763,0.875,25.593429158110883,0.89375,1.0,1.0,0.0625,0.0625,1.0,2.0,14.0,12.0,10.0,62.0,0.0,178.0,773.0,7.0,0.0,0.0,0.0,0.0,,2
00-0028034,2014,veteran,RB,7.2482227011077995,3.9839138509573324,1.2582722798968586,28.87629481376673,112.93087458969501,0.7560984476453959,9.120237703323077,6.682775709641223,52.8159799303382,0.1792300167230321,0.39226978296695814,3.9108505893164445,0.7327413963351269,7.90329980013256,0.0032608079879109194,2.2044798829266296e-05,7.098022841892905e-06,8.92365938368832e-06,3.466859462110803e-11,1.3669950434902702e-11,0.02404231824511025,24.743504527100587,24.7675468453457,veteran,,,0.0,0.0,0.0,0.0,0.0,0.0,0.0,0.0,0.0,0.0,0.0,0.0,0.0,0.0,0.0,0.0,0.0,0.0,0.0,0.0,0.0,0.0,0.0,0.0,0.0,0.0,0.0,0.0,0.0,16,5.3,3.1697986577181205,0.5356543624161074,0.4375,26.17659137577002,0.465625,1.0,0.6875,0.0,0.5625,0.0,9.0,7.0,2.0,2.0,8.0,0.0,11.0,35.0,0.0,0.0,0.0,0.0,0.0,,2
00-0028043,2014,veteran,RB,11.272167115233781,6.225900745765774,2.75447696446657,70.17939364913043,286.0086480829495,1.948039445165067,31.04892465852904,23.389431055679456,183.81234450027912,0.5155658684345742,0.6247846733604896,4.0753935480389165,0.7533088927527303,7.858777926778409,0.012965967205084935,0.0002163582023856705,6.602190094133247e-05,0.00041113590123881055,1.7562199882513588e-07,1.3669396525584714e-11,0.15593857002355793,72.20887732103947,72.36481589106302,veteran,Roy Helu,RB,13.0,106.3,47.0,42.0,477.0,2.0,40.0,216.0,1.0,0.0,0.0,0.0,0.0,0.0,0.0,1.0,0.0,0.0,0.0,0.0,0.0,0.0,0.0,0.0,0.0,0.0,0.0,0.0,0.0,16,92.0,6.252719665271965,0.9270397489539748,1.0,25.73305954825462,0.7468750000000001,1.0,1.0,0.0,0.0,0.0,0.0,16.0,42.0,31.0,251.0,0.0,62.0,274.0,4.0,0.0,0.0,0.0,0.0,,2
00-0028053,2014,veteran,RB,12.659121168581867,5.7137649805499215,0.8001247235387599,72.33124321758127,302.53220084092936,1.976261992070728,10.128875825255228,7.38918859468411,57.92520864179769,0.199641967040821,0.855345531184274,4.182593681279268,0.7295171470322489,7.839183950923912,0.010935776572709907,0.00016301169945435627,5.007433236554669e-05,1.1362317521165054e-06,3.521433222748359e-13,1.3670248465191842e-11,0.142814876119329,51.085067937915504,51.227882814034835,veteran,,,0.0,0.0,0.0,0.0,0.0,0.0,0.0,0.0,0.0,0.0,0.0,0.0,0.0,0.0,0.0,0.0,0.0,0.0,0.0,0.0,0.0,0.0,0.0,0.0,0.0,0.0,0.0,0.0,0.0,16,60.1,4.369310344827586,0.9288793103448276,1.0,25.95756331279945,0.9062500000000001,1.0,1.0,0.0,0.0,0.0,0.0,16.0,4.0,2.0,13.0,0.0,78.0,358.0,3.0,0.0,0.0,0.0,0.0,,2
00-0028057,2014,veteran,RB,2.643913192795619,4.409457013843369,0.8397094474833975,11.658221571965658,46.71586029937024,0.32067595870657206,2.2201188863164747,1.638017366091088,12.893624752535464,0.048254851822904524,0.21191065296791425,4.007117210030313,0.7378061491152015,7.871482329460521,0.004645819549513655,3.9526388067316977e-05,1.2553007135607096e-05,1.4935491231986334e-06,6.473888521692222e-13,1.3670208924288856e-11,0.012510227118053304,8.569720745477145,8.582230972595198,veteran,,,0.0,0.0,0.0,0.0,0.0,0.0,0.0,0.0,0.0,0.0,0.0,0.0,0.0,0.0,0.0,0.0,0.0,0.0,0.0,0.0,0.0,0.0,0.0,0.0,0.0,0.0,0.0,0.0,0.0,16,0.0,3.6129032258064515,0.7116935483870968,0.0,27.195071868583163,0.290625,0.0,0.9375,0.0,1.0,0.0,16.0,0.0,0.0,0.0,0.0,0.0,0.0,0.0,0.0,0.0,0.0,0.0,0.0,,2
00-0028064,2014,veteran,RB,11.976308038675617,9.236876247370898,2.853969208593525,110.62367525363995,436.38700849125365,2.8792835427254646,34.18001437501132,23.424469695630734,184.50329997073695,0.48265136545043413,0.5205950837260721,3.9447885589653184,0.6853265021666035,7.8765198259814415,0.036157579177643645,0.0012120153250207225,0.0003553735065996228,0.00031134680647695444,9.453858837789631e-08,1.3669436740555426e-11,0.4670501185755008,92.93168497561767,93.39873509419317,veteran,Bilal Powell,RB,15.0,34.8,15.0,11.0,92.0,0.0,33.0,141.0,1.0,0.0,0.0,0.0,0.0,0.0,0.0,0.0,0.0,0.0,0.0,0.0,0.0,0.0,0.0,0.0,0.0,0.0,0.0,0.0,0.0,16,123.1,7.162406015037594,0.9407894736842105,1.0,25.845311430527037,0.83125,1.0,1.0,0.0,0.0,0.0,0.0,16.0,57.0,36.0,272.0,0.0,176.0,697.0,1.0,1.0,30.0,0.0,0.0,,2
00-0028083,2014,veteran,RB,13.897301595104953,6.723770049461319,3.2823051089226114,93.44226023349769,361.62922686198203,2.47897924290579,45.61518402585134,36.08822246145531,288.6808944160574,1.1169230502061838,0.8497524522555524,3.870082187206589,0.7911449494756647,7.999310432216172,0.013930991588065787,0.00024382862777702356,7.419662696709779e-05,0.0013555838408300267,2.50795430804552e-06,1.36692238759553e-11,0.21963953593893443,102.95103221269234,103.17067174863128,veteran,Jacquizz Rodgers,RB,16.0,65.5,40.0,29.0,173.0,1.0,58.0,217.0,1.0,0.0,0.0,0.0,0.0,0.0,0.0,0.0,0.0,0.0,0.0,0.0,0.0,0.0,0.0,0.0,0.0,0.0,0.0,0.0,0.0,16,115.3,6.9161812297734615,0.966626213592233,0.9375,24.566735112936346,0.9656250000000001,1.0,1.0,0.0625,0.0,1.0,1.0,15.0,62.0,52.0,341.0,2.0,96.0,332.0,2.0,0.0,0.0,0.0,0.0,,2
00-0028121,2014,veteran,RB,10.294373112114968,5.260292376328519,1.9246467627570119,54.15141240073966,211.9177085962923,1.46521538110538,19.8130318848449,14.0489632995037,110.41060674242378,0.48913060863423696,0.5217376429477392,3.9134290169206682,0.7090769035833345,7.8589860610088,0.007157986773591187,8.074546901061741e-05,2.5216231016091894e-05,5.4276304773958004e-05,1.9319163751626698e-09,1.3669689366577211e-11,0.0760117637834493,49.939913836165694,50.01592559994914,veteran,Jordan Todman,RB,16.0,62.9,37.0,25.0,198.0,1.0,32.0,186.0,1.0,0.0,0.0,0.0,0.0,0.0,0.0,0.0,0.0,0.0,0.0,0.0,0.0,0.0,0.0,0.0,0.0,0.0,0.0,0.0,0.0,16,63.2,3.8626373626373627,0.9690934065934066,1.0,24.517453798767967,0.5687500000000001,1.0,1.0,0.0,0.0,0.0,0.0,16.0,26.0,14.0,116.0,1.0,76.0,256.0,2.0,0.0,0.0,0.0,0.0,,2
00-0028170,2014,veteran,RB,2.2042009883169946,1.8214905727114374,0.8227303725268609,4.014931320580639,15.974021365069607,0.10913523707397242,1.813463100242116,1.3469568682545294,10.593665231365097,0.039569573909455126,0.1472532383955491,3.978653702788481,0.742753943035674,7.8648882388439265,0.0004037540255748988,7.090755364056196e-07,2.4756612186533034e-07,1.4025505247117603e-06,5.628201365291639e-13,1.3670218014658989e-11,0.000896482376064744,3.9279694828802016,3.9288659652562665,veteran,,,0.0,0.0,0.0,0.0,0.0,0.0,0.0,0.0,0.0,0.0,0.0,0.0,0.0,0.0,0.0,0.0,0.0,0.0,0.0,0.0,0.0,0.0,0.0,0.0,0.0,0.0,0.0,0.0,0.0,16,0.0,1.7777777777777775,0.5625,0.0,26.69678302532512,0.16874999999999998,0.0,0.5625,0.0,1.0,0.0,16.0,0.0,0.0,0.0,0.0,0.0,0.0,0.0,0.0,0.0,0.0,0.0,0.0,,2
00-0028198,2014,veteran,RB,5.259074981094951,3.3841119407689293,0.7610499478296052,17.797298440922557,71.27271071310511,0.49551912017787775,4.002418739994295,2.945726498854738,23.36982497118409,0.08384262903738104,0.44099866679698196,4.004692675671654,0.735986584666785,7.933467339982171,0.0022082989308246583,1.1599636429628316e-05,3.7917878505653204e-06,1.003048143044508e-06,2.667753293018131e-13,1.3670266493866921e-11,0.011750272539005348,13.531289979553879,13.543040252092885,veteran,Matt Asiata,RB,15.0,172.2,63.0,44.0,312.0,1.0,164.0,570.0,9.0,0.0,0.0,0.0,0.0,0.0,0.0,1.0,0.0,0.0,0.0,0.0,0.0,0.0,0.0,0.0,0.0,0.0,0.0,0.0,0.0,16,37.400000000000006,4.385416666666667,0.35546874999999994,0.375,27.107460643394933,0.30000000000000004,1.0,0.375,0.25,0.375,4.0,10.0,6.0,8.0,5.0,13.0,0.0,44.0,166.0,3.0,0.0,0.0,0.0,0.0,,2
00-0028202,2014,veteran,RB,3.2271953718855855,4.676004410712804,1.9692525410371302,15.090379793168946,60.346848189661,0.4096978575019362,6.355162686508955,4.753340751556584,37.56063427980127,0.12630949997514793,0.2309130602455968,3.9990277923275714,0.7479494996480899,7.901944388796707,0.005452370280683773,5.148604410581243e-05,1.6249810876154494e-05,8.017994112866768e-05,4.606456710558914e-09,1.3669632941872276e-11,0.01820875877148004,14.92163664709583,14.939845405867311,veteran,Shaun Draughn,RB,7.0,1.9,0.0,0.0,0.0,0.0,10.0,19.0,0.0,0.0,0.0,0.0,0.0,0.0,0.0,0.0,0.0,0.0,0.0,0.0,0.0,0.0,0.0,0.0,0.0,0.0,0.0,0.0,0.0,16,0.2,3.4467289719626164,0.9036214953271028,0.0625,26.73511293634497,0.334375,1.0,1.0,0.0,0.9375,0.0,15.0,1.0,0.0,0.0,0.0,0.0,4.0,2.0,0.0,0.0,0.0,0.0,0.0,,2
00-0028409,2014,veteran,RB,3.018951984200779,4.269355132882115,0.5199010051510085,12.888978149672242,52.46076849093488,0.3522810916743651,1.5695561710886163,1.1657079607781418,9.168595122224467,0.03451619732882672,0.2092457759099173,4.070203850277217,0.7426991032564495,7.8652590792158446,0.0044324537839814035,3.657527994302135e-05,1.1637014641940591e-05,2.1182546397978592e-07,9.357622968839299e-14,1.3670491364486311e-11,0.013617896417720507,8.648082523904323,8.661700420322044,veteran,DuJuan Harris,RB,12.0,8.0,2.0,1.0,11.0,0.0,16.0,64.0,0.0,0.0,0.0,0.0,0.0,0.0,0.0,0.0,0.0,0.0,0.0,0.0,0.0,0.0,0.0,0.0,0.0,0.0,0.0,0.0,0.0,16,0.0,5.069230769230769,0.27403846153846156,0.0,25.99315537303217,0.121875,0.0,0.3125,0.0,1.0,0.0,16.0,0.0,0.0,0.0,0.0,0.0,0.0,0.0,0.0,0.0,0.0,0.0,0.0,,2
00-0028565,2014,veteran,RB,3.4884597149923486,2.5702574513522016,0.8080950240432103,8.966239576201062,36.3458959376465,0.24316075379716257,2.8190069372605127,2.0838049268925674,16.387223213258057,0.06187164303753209,0.22329586873061058,4.053638722092459,0.7391982259247618,7.864086989032691,0.0010693703447792224,3.5171543281686137e-06,1.1825008091443848e-06,1.271382275581147e-06,4.522836843693532e-13,1.3670232213230358e-11,0.0037615450214124172,7.698817022083688,7.702578567105101,veteran,,,0.0,0.0,0.0,0.0,0.0,0.0,0.0,0.0,0.0,0.0,0.0,0.0,0.0,0.0,0.0,0.0,0.0,0.0,0.0,0.0,0.0,0.0,0.0,0.0,0.0,0.0,0.0,0.0,0.0,16,0.0,1.9500000000000002,0.640625,0.0,25.338809034907598,0.22499999999999998,0.0,0.6875,0.0,1.0,0.0,16.0,0.0,0.0,0.0,0.0,0.0,0.0,0.0,0.0,0.0,0.0,0.0,0.0,,2
00-0028613,2014,veteran,RB,8.507656262932286,0.7560367345584955,0.4794468205357747,6.432100659773459,25.259216159813167,0.17570956155866982,4.078968745474156,3.034519971197337,23.752078009499627,0.08620102168030551,0.4379647256037489,3.927055482477914,0.7439429327729729,7.827293356098005,4.517756440105007e-05,1.9390370880503466e-08,7.369182910949751e-09,1.529142573578668e-07,9.357622968839299e-14,1.3670538490551195e-11,0.0003860292033282622,7.113923450756303,7.114309479959632,veteran,,,0.0,0.0,0.0,0.0,0.0,0.0,0.0,0.0,0.0,0.0,0.0,0.0,0.0,0.0,0.0,0.0,0.0,0.0,0.0,0.0,0.0,0.0,0.0,0.0,0.0,0.0,0.0,0.0,0.0,16,12.0,1.4637931034482756,0.5474137931034482,0.5625,26.064339493497606,0.5437500000000001,1.0,0.5625,0.0,0.4375,0.0,7.0,9.0,4.0,3.0,33.0,0.0,9.0,12.0,1.0,0.0,0.0,0.0,0.0,,2
00-0028736,2014,veteran,RB,2.385892548425417,4.5437646357904145,2.3105855577729515,10.84093418633128,43.44135430167619,0.2896965025002698,5.512808864789871,4.097455697157048,32.310377918523265,0.1115648533357859,0.15272068271532624,4.007159674158795,0.7432609759658751,7.885473402663338,0.005056676475191115,4.546191360834553e-05,1.4390578407056905e-05,0.00016631859189761975,2.3393045807411917e-08,1.3669527425059241e-11,0.012692958405149113,11.72602784018415,11.738720798589299,veteran,,,0.0,0.0,0.0,0.0,0.0,0.0,0.0,0.0,0.0,0.0,0.0,0.0,0.0,0.0,0.0,0.0,0.0,0.0,0.0,0.0,0.0,0.0,0.0,0.0,0.0,0.0,0.0,0.0,0.0,16,0.0,3.6999999999999997,0.75,0.0,26.48870636550308,0.22499999999999998,0.0,0.75,0.0,1.0,0.0,16.0,0.0,0.0,0.0,0.0,0.0,0.0,0.0,0.0,0.0,0.0,0.0,0.0,,2
00-0029004,2014,veteran,RB,8.413731027308334,1.9640374199365997,1.019812285451898,16.524882578915175,67.54762252423515,0.4400090201980179,8.580426268136858,6.376131249704111,50.19367572263028,0.17375087363020483,0.641005677572261,4.0876310135130485,0.7431019217986492,7.872120845216221,0.0005294039807405169,1.1069275862799785e-06,3.824370152945971e-07,3.6161211724192933e-06,4.638032960647135e-12,1.3670081057114078e-11,0.004505093589041087,17.36274345736341,17.367248550952453,veteran,Lance Dunbar,RB,15.0,40.6,22.0,18.0,217.0,0.0,29.0,99.0,0.0,0.0,0.0,0.0,0.0,0.0,0.0,0.0,0.0,0.0,0.0,0.0,0.0,0.0,0.0,0.0,0.0,0.0,0.0,0.0,0.0,16,22.4,2.3183098591549296,0.5237676056338029,0.5,24.59958932238193,0.44375,1.0,0.5625,0.1875,0.3125,3.0,8.0,8.0,7.0,7.0,59.0,0.0,30.0,150.0,0.0,0.0,0.0,0.0,0.0,,2
00-0029140,2014,veteran,RB,4.131451744445307,2.158332090148339,1.5302343757309007,8.917044878935641,36.029336992775626,0.24447759551701323,6.322089481023606,4.601368030609756,36.4787303160016,0.12848835374458667,0.2887661635354908,4.040501924341124,0.7278239329609665,7.927801052498635,0.0006604870062603259,1.5924696333910904e-06,5.454938474862038e-07,2.168813102861516e-05,2.504967585326959e-10,1.366982201733431e-11,0.0028327515064777743,11.21175411468122,11.214586866187698,veteran,,,0.0,0.0,0.0,0.0,0.0,0.0,0.0,0.0,0.0,0.0,0.0,0.0,0.0,0.0,0.0,0.0,0.0,0.0,0.0,0.0,0.0,0.0,0.0,0.0,0.0,0.0,0.0,0.0,0.0,16,0.0,1.6881355932203388,0.836864406779661,0.125,26.49965776865161,0.36875,1.0,1.0,0.0,0.875,0.0,14.0,2.0,1.0,0.0,0.0,0.0,0.0,0.0,0.0,0.0,0.0,0.0,0.0,,2
00-0029141,2014,veteran,RB,12.086525423136129,16.159799704597564,1.0063514712235018,195.31582996240616,851.5910089155714,5.371555361852966,12.1632926415533,8.989919595180035,70.64229750248755,0.23499694388097833,1.6894052248933709,4.360071629009708,0.7391024667504824,7.85794541926299,0.20639296709744584,0.02838924165058782,0.007879027206071362,3.3011640507467143e-06,3.786200442381764e-12,1.3670094234534213e-11,3.1997648056836967,126.97879382401284,130.17855862969654,veteran,Alfred Morris,RB,16.0,180.4,26.0,17.0,155.0,0.0,265.0,1074.0,8.0,0.0,0.0,0.0,0.0,0.0,0.0,0.0,0.0,1.0,0.0,1.0,0.0,0.0,0.0,1.0,0.0,0.0,0.0,0.0,0.0,16,176.8,12.819117647058823,1.0,1.0,25.71937029431896,0.8500000000000001,1.0,1.0,0.0,0.0,0.0,0.0,16.0,12.0,9.0,78.0,0.0,276.0,1275.0,7.0,0.0,0.0,0.0,0.0,,2
00-0029239,2014,veteran,RB,9.759046451852523,5.578797629731395,1.7913310753708238,54.443745214033434,227.47523463444222,1.5134682608765095,17.481683175190803,12.938423367071936,102.18598400542348,0.3185601997440161,0.5014007454140128,4.178170214781773,0.740113136556184,7.897869864537363,0.010186523256289399,0.00014489112506912172,4.463122886066901e-05,4.8423173965420364e-05,1.498394285946104e-09,1.3669705867700682e-11,0.10287545514755986,49.424702820417664,49.527578275565226,veteran,Brandon Bolden,RB,12.0,16.7,6.0,2.0,8.0,0.0,28.0,89.0,1.0,0.0,0.0,0.0,0.0,0.0,0.0,0.0,0.0,0.0,0.0,0.0,0.0,0.0,0.0,0.0,0.0,0.0,0.0,0.0,0.0,16,70.8,5.907428571428572,0.6489285714285715,0.6875,24.5968514715948,0.546875,1.0,0.6875,0.0,0.3125,0.0,5.0,11.0,29.0,21.0,152.0,0.0,55.0,271.0,3.0,0.0,0.0,0.0,0.0,,2
00-0029251,2014,veteran,RB,8.412271033330669,5.601724953748925,1.1468343505019196,47.12322856510766,190.30655529946347,1.2945541887124792,9.647481386755889,6.892485622289169,54.30607061980465,0.23395392980720608,0.9017107810201583,4.038487198230211,0.7144336792140598,7.87902559334875,0.009356559055146168,0.00012583679336304184,3.8890372344332316e-05,5.149660762091223e-06,1.0191491114775795e-11,1.3670029935032723e-11,0.08099540393500469,35.27513255214919,35.356127956084194,veteran,,,0.0,0.0,0.0,0.0,0.0,0.0,0.0,0.0,0.0,0.0,0.0,0.0,0.0,0.0,0.0,0.0,0.0,0.0,0.0,0.0,0.0,0.0,0.0,0.0,0.0,0.0,0.0,0.0,0.0,16,18.4,4.368211920529801,0.7495860927152318,0.3125,23.21423682409309,0.471875,1.0,1.0,0.1875,0.5,3.0,11.0,5.0,6.0,2.0,8.0,0.0,44.0,146.0,1.0,0.0,0.0,0.0,0.0,,2
00-0029260,2014,veteran,RB,8.344240988402206,1.367790777366115,0.5749663257679674,11.413175868056854,46.61012396547639,0.3057549524361153,4.797657582424089,3.536789226118426,27.78674820905917,0.10248726605731548,0.46579598539661826,4.083887298707856,0.7371908406042205,7.856489723464442,0.0002058790090505631,2.3439811558085107e-07,8.40003946186237e-08,3.0498351541974936e-07,9.357622968839299e-14,1.36704386552747e-11,0.001724784801848681,10.725943170680114,10.727667955481964,veteran,LaMichael James,RB,3.0,0.9,1.0,0.0,0.0,0.0,5.0,9.0,0.0,0.0,0.0,0.0,0.0,0.0,0.0,0.0,0.0,0.0,0.0,0.0,0.0,0.0,0.0,0.0,0.0,0.0,0.0,0.0,0.0,16,8.5,1.4544776119402985,0.5578358208955223,0.625,24.859685147159478,0.41875,1.0,0.625,0.0,0.375,0.0,6.0,10.0,3.0,2.0,16.0,0.0,12.0,59.0,0.0,0.0,0.0,0.0,0.0,,2
00-0029264,2014,veteran,RB,13.70504070732097,7.345602291894598,1.4819817732511407,100.67177843020568,380.0648227527965,2.6212120911680907,20.310620529914598,15.163795034552475,121.21149339340131,0.36807207310341034,0.5957409237852216,3.7752866660271636,0.7465943747124025,7.993480069943361,0.016695227194070995,0.00032976946516616984,9.964266261581507e-05,2.1858308654694817e-05,2.548949238685216e-10,1.3669820887107065e-11,0.23861881234820162,74.45375226995458,74.69237108230278,veteran,Bernard Pierce,RB,13.0,48.9,6.0,2.0,13.0,0.0,93.0,366.0,2.0,0.0,0.0,0.0,0.0,0.0,0.0,1.0,0.0,0.0,0.0,0.0,0.0,0.0,0.0,0.0,0.0,0.0,0.0,0.0,0.0,16,76.0,4.685714285714286,0.9788533834586466,1.0,23.312799452429843,0.83125,1.0,1.0,0.0,0.0,0.0,0.0,16.0,25.0,20.0,104.0,0.0,152.0,436.0,2.0,0.0,0.0,0.0,0.0,,2
00-0029273,2014,veteran,RB,12.653922252913306,5.0388127720109965,1.1436884811157353,63.76074506401373,252.14497247994422,1.6494752146137353,14.472145121591023,10.746179919899763,84.13434036243065,0.27291548432516793,0.7692233024133492,3.954548715307495,0.7425422996807512,7.829232433251073,0.0065268047307102,6.931060323521078e-05,2.1723067842314654e-05,5.883013739801443e-06,1.3708762784917669e-11,1.3670010682577768e-11,0.08452946392709697,48.99691883299409,49.08144829692119,veteran,Robert Turbin,RB,16.0,67.6,20.0,16.0,186.0,2.0,74.0,310.0,0.0,0.0,0.0,0.0,0.0,0.0,0.0,1.0,0.0,0.0,0.0,0.0,0.0,0.0,0.0,0.0,0.0,0.0,0.0,0.0,0.0,16,34.4,2.866165413533835,0.9788533834586466,1.0,24.747433264887064,0.83125,1.0,1.0,0.0,0.0,0.0,0.0,16.0,12.0,8.0,60.0,0.0,77.0,264.0,0.0,0.0,0.0,0.0,0.0,,2
00-0029317,2014,veteran,RB,5.869771828006609,13.084534815221721,2.6452854883339807,76.80323384096012,309.4511822844896,2.1085597946202905,15.527222236457506,11.659059244105535,91.84349788678287,0.32424937960617806,0.4130049757132685,4.0291426129957495,0.750878622496326,7.87743641779813,0.09962030201651831,0.007123831159785086,0.002011691882985125,0.0003358923612481109,1.119491020494833e-07,1.3669425764436836e-11,0.6730602794838915,59.7298427331123,60.40290301259619,veteran,Edwin Baker,RB,1.0,0.2,0.0,0.0,0.0,0.0,1.0,2.0,0.0,0.0,0.0,0.0,0.0,0.0,0.0,0.0,0.0,0.0,0.0,0.0,0.0,0.0,0.0,0.0,0.0,0.0,0.0,0.0,0.0,16,38.8,12.933333333333332,0.1875,0.1875,23.252566735112936,0.10312500000000001,1.0,0.1875,0.0,0.8125,0.0,13.0,3.0,9.0,8.0,57.0,0.0,43.0,171.0,2.0,0.0,0.0,0.0,0.0,,2
00-0029384,2014,veteran,RB,7.58284534447953,9.473293569585463,1.4636307779885158,71.834520041019,282.4383064936597,1.9705098207186897,11.098485830907169,8.296504739140268,66.61813841158778,0.28720381644985576,0.5641217837964737,3.931790820518903,0.747534831826886,8.029663154087602,0.038458156544430404,0.0013463888983200258,0.00039383269521719967,2.1186266338418944e-05,2.37771379274432e-10,1.3669825402828894e-11,0.31306984142614847,51.471935115513205,51.78500495693935,veteran,Bobby Rainey,RB,15.0,95.6,45.0,33.0,315.0,1.0,94.0,406.0,1.0,1.0,0.0,0.0,0.0,0.0,0.0,3.0,0.0,1.0,0.0,1.0,0.0,0.0,0.0,1.0,0.0,0.0,0.0,0.0,0.0,16,106.2,7.585714285714286,0.875,0.875,26.87748117727584,0.48125000000000007,1.0,0.875,0.0,0.125,0.0,2.0,14.0,19.0,15.0,46.0,1.0,150.0,566.0,5.0,1.0,0.0,0.0,0.0,,2
00-0029429,2014,veteran,RB,13.384361443507423,6.044431621906942,1.2205208347653151,80.90085754816832,334.5660046799778,2.2053464062314956,16.335892001830377,11.878628714903881,93.5115230875896,0.310362495474546,0.9690803614294119,4.135506282869467,0.7271490723355005,7.8722490054986345,0.012426600449295815,0.0002015912168320825,6.1617688842519e-05,7.365638558229917e-06,2.2613340525316767e-11,1.3669978181701676e-11,0.17211737851851738,61.9031598215861,62.075277200104615,veteran,Bryce Brown,RB,7.0,36.2,25.0,16.0,176.0,0.0,36.0,126.0,0.0,0.0,0.0,0.0,0.0,0.0,0.0,1.0,0.0,0.0,0.0,0.0,0.0,0.0,0.0,0.0,0.0,0.0,0.0,0.0,0.0,16,58.8,4.581609195402298,0.9604885057471264,0.9375,23.301848049281315,0.815625,1.0,1.0,0.0,0.0625,0.0,1.0,15.0,13.0,8.0,84.0,0.0,75.0,314.0,2.0,0.0,0.0,0.0,0.0,,2
00-0029441,2014,veteran,RB,6.626567147174775,0.8867433236983164,0.6244351420956056,5.876064176795831,23.67930745471052,0.16076032537762186,4.137861398152152,3.1171673486688847,24.587714450051617,0.08800040728031651,0.3971170758504609,4.029790475777726,0.753328120188105,7.887839085877516,6.907042001391933e-05,3.8951970845157604e-08,1.4562092460090838e-08,4.726132299064852e-07,9.357622968839299e-14,1.3670375314022789e-11,0.0004614119316563337,7.083616109057365,7.084077520989021,veteran,Jeremy Stewart,RB,4.0,2.2,0.0,0.0,0.0,0.0,6.0,22.0,0.0,0.0,0.0,0.0,0.0,0.0,0.0,0.0,0.0,0.0,0.0,0.0,0.0,0.0,0.0,0.0,0.0,0.0,0.0,0.0,0.0,16,13.8,2.7089108910891087,0.39294554455445546,0.4375,25.53593429158111,0.31562500000000004,1.0,0.4375,0.1875,0.375,3.0,9.0,7.0,2.0,2.0,6.0,0.0,2.0,2.0,1.0,0.0,0.0,0.0,0.0,,2
00-0029547,2014,veteran,RB,5.075059920642879,11.232517208623298,2.2023913493841256,57.00569789341552,227.56445907643072,1.4942425586345058,11.177268066829964,8.128919442446275,63.97455088016131,0.2608232672998034,0.3001481970657077,3.9919598827105265,0.7272724778400842,7.869994447983991,0.06437027822365567,0.003276174439987388,0.0009397028289569635,0.00011764556525160418,1.081925443851417e-08,1.3669577496483838e-11,0.36175842860708085,43.14845927835679,43.51021770696387,veteran,,,0.0,0.0,0.0,0.0,0.0,0.0,0.0,0.0,0.0,0.0,0.0,0.0,0.0,0.0,0.0,0.0,0.0,0.0,0.0,0.0,0.0,0.0,0.0,0.0,0.0,0.0,0.0,0.0,0.0,16,6.3,7.606542056074768,0.9036214953271028,0.0625,24.128678986995208,0.334375,1.0,1.0,0.0625,0.875,1.0,15.0,1.0,2.0,1.0,-5.0,0.0,13.0,63.0,0.0,0.0,0.0,0.0,0.0,,2
00-0029612,2014,veteran,RB,8.66894271611439,6.793072541024334,2.329169033321649,58.88875672454957,233.97831642592388,1.5225317915786223,20.191432926012904,14.873417606644926,117.02913826942135,0.35172826259075585,0.6375315278250613,3.9732256111357653,0.7366202122031317,7.868342123140334,0.015457312196135978,0.00028997230346288356,8.788117006186834e-05,0.00016380948583928162,2.2614300835078337e-08,1.3669529623483984e-11,0.1407132069127666,52.507951542223125,52.64866474913589,veteran,,,0.0,0.0,0.0,0.0,0.0,0.0,0.0,0.0,0.0,0.0,0.0,0.0,0.0,0.0,0.0,0.0,0.0,0.0,0.0,0.0,0.0,0.0,0.0,0.0,0.0,0.0,0.0,0.0,0.0,16,40.6,5.141040462427745,0.7496387283236994,0.4375,24.38877481177276,0.540625,1.0,1.0,0.0625,0.5,1.0,9.0,7.0,18.0,14.0,121.0,0.0,69.0,215.0,0.0,0.0,0.0,0.0,0.0,,2
00-0029613,2014,veteran,RB,7.2294726803569525,17.94293355101976,3.804915982306596,129.71794791255752,522.9472081866966,3.4688701491158036,27.507536145139074,19.332910009810334,151.13832311947456,0.49379582375495645,0.6104475249367428,4.031417522417281,0.7028223068690469,7.817670647759732,0.21940763884378797,0.03213005682577274,0.008915493507175767,0.0013992896615035025,2.6918494462173074e-06,1.366921928124778e-11,2.073680533982639,99.63010892287335,101.70378945685599,veteran,Doug Martin,RB,11.0,75.3,20.0,13.0,64.0,0.0,134.0,494.0,2.0,0.0,0.0,0.0,0.0,0.0,0.0,0.0,0.0,1.0,0.0,1.0,0.0,0.0,0.0,1.0,0.0,0.0,0.0,0.0,0.0,16,63.2,15.239506172839508,0.7453703703703703,0.375,25.631759069130734,0.50625,1.0,1.0,0.125,0.5,2.0,10.0,6.0,24.0,12.0,66.0,0.0,127.0,456.0,1.0,0.0,0.0,0.0,0.0,,2
00-0029615,2014,veteran,RB,12.801954818016403,7.936618379852061,1.9781696385224574,101.60422990670463,409.21597501115934,2.6503118984641967,25.324438334736342,18.729453830150383,148.7448699491131,0.4353440314722404,0.8274525145324639,4.027548610790229,0.7395802261272689,7.941762279776997,0.02498668830648336,0.000648392232794995,0.00019286260644256378,7.952657996420555e-05,4.523279010193711e-09,1.3669634125093904e-11,0.33828570649562484,82.01984196165611,82.35812766815174,veteran,Lamar Miller,RB,16.0,207.9,52.0,38.0,275.0,1.0,216.0,1099.0,8.0,0.0,0.0,0.0,0.0,0.0,0.0,3.0,0.0,3.5,0.0,3.5,0.0,0.0,0.0,2.0,1.0,0.0,0.0,0.0,0.0,16,111.89999999999999,6.356086956521739,0.8972826086956524,1.0,23.353867214236825,0.71875,1.0,1.0,0.0,0.0,0.0,0.0,16.0,35.0,26.0,170.0,0.0,177.0,709.0,2.0,0.0,0.0,0.0,0.0,,2
00-0029675,2014,veteran,RB,13.82966600425432,12.28100595434339,3.445096934388047,169.84221054482765,606.6618287862354,4.598277811617835,47.64453995486714,34.43178973308905,268.89702425195054,0.9573913913949534,0.8406959630731832,3.571914348265709,0.7226807051911026,7.809556991849881,0.060606426703581795,0.0029488445751631336,0.0008477219351052936,0.000977277699549966,1.2092006340865915e-06,1.3669271244919244e-11,0.9363268736528915,136.42440346229347,137.36073033594636,veteran,Trent Richardson,RB,15.0,104.3,34.0,27.0,229.0,0.0,159.0,519.0,3.0,0.0,0.0,0.0,0.0,0.0,0.0,1.0,0.0,0.0,0.0,0.0,0.0,0.0,0.0,0.0,0.0,0.0,0.0,0.0,0.0,16,127.4,10.506015037593986,0.9788533834586466,1.0,23.145790554414784,0.83125,1.0,1.0,0.0,0.0,0.0,0.0,16.0,52.0,35.0,316.0,1.0,188.0,563.0,3.0,0.0,0.0,0.0,0.0,,2
00-0029683,2014,veteran,RB,10.596390347690878,5.251504201883333,1.377175608576524,55.64698843569464,222.34498936842175,1.4821081059757064,14.593090325795592,11.032784242034959,86.34729100092218,0.2822699805877128,0.8600326491710396,3.9956338270733633,0.7560279554038509,7.826427953873928,0.007556863253999916,8.832757751913109e-05,2.752593135257753e-05,1.4931011193652193e-05,1.090807861962312e-10,1.3669876001935156e-11,0.08222097095127412,45.25182337899031,45.334044349941585,veteran,Ronnie Hillman,RB,8.0,93.8,34.0,21.0,139.0,1.0,106.0,434.0,3.0,0.0,0.0,0.0,0.0,0.0,0.0,0.0,0.0,2.0,0.0,2.0,0.0,0.0,0.0,2.0,0.0,0.0,0.0,0.0,0.0,16,43.699999999999996,4.207103825136612,0.7059426229508197,0.5625,22.965092402464066,0.571875,1.0,0.875,0.0,0.4375,0.0,7.0,9.0,14.0,12.0,119.0,0.0,55.0,218.0,1.0,0.0,0.0,0.0,0.0,,2
00-0029731,2014,veteran,RB,8.134643767911939,3.3148791606722896,2.638893913083644,26.965361105743998,106.84902171528265,0.7220052595992633,21.466461924246616,15.277348674441352,120.46571341390842,0.6279133458070452,0.4456918954364478,3.9624546949798614,0.7116845211080365,7.885249985519067,0.0020243857698241555,1.0052284604668645e-05,3.2970782486064295e-06,0.0002567855554196562,6.154977022937622e-08,1.3669464607595176e-11,0.018733566100532315,37.57827569170474,37.59700925780527,veteran,Fozzy Whittaker,RB,8.0,35.0,6.0,5.0,60.0,1.0,32.0,145.0,1.0,0.0,0.0,0.0,0.0,0.0,0.0,0.0,0.0,0.0,0.0,0.0,0.0,0.0,0.0,0.0,0.0,0.0,0.0,0.0,0.0,16,45.9,3.5307692307692307,0.8125,0.8125,25.522245037645447,0.446875,1.0,0.8125,0.0,0.1875,0.0,3.0,13.0,35.0,21.0,155.0,2.0,28.0,79.0,0.0,0.0,0.0,0.0,0.0,,2
00-0029795,2014,veteran,RB,9.510326569557613,4.037768804494788,1.0745862112331417,38.40049994311766,160.91255207914665,1.0363116816907316,10.219665795970796,7.4774921159242815,58.593402100906275,0.2119580345562561,0.7075157338942246,4.190376487741177,0.7316767754648451,7.835969759984646,0.004111491555866691,3.230894206828639e-05,1.030966982475092e-05,4.175625409613804e-06,6.389478050500889e-12,1.367006025389301e-11,0.03979833883570571,31.763928305660908,31.803726644496614,veteran,Benny Cunningham,RB,16.0,102.3,53.0,45.0,352.0,1.0,66.0,246.0,3.0,0.0,0.0,0.0,0.0,0.0,0.0,2.0,0.0,0.0,0.0,0.0,0.0,0.0,0.0,0.0,0.0,0.0,0.0,0.0,0.0,16,42.0,2.9999999999999996,0.875,0.875,24.1533196440794,0.48125000000000007,1.0,0.875,0.0625,0.0625,1.0,2.0,14.0,10.0,6.0,59.0,0.0,47.0,261.0,1.0,0.0,0.0,0.0,0.0,,2
00-0030236,2014,veteran,RB,6.896962088459752,4.232021863479772,1.4509513020605704,29.188094349952777,116.76864781413835,0.7748475444450871,10.007156122513068,7.358836867876469,58.15883761278184,0.20475426789816178,0.42552756591751667,4.000557433251111,0.7353574559830556,7.903264966595824,0.004118801874311969,3.240376984817121e-05,1.0339215606910998e-05,1.7502297808750695e-05,1.5538787305663881e-10,1.3669853025413529e-11,0.029005784571951396,26.198722718854714,26.227728503426665,veteran,,,0.0,0.0,0.0,0.0,0.0,0.0,0.0,0.0,0.0,0.0,0.0,0.0,0.0,0.0,0.0,0.0,0.0,0.0,0.0,0.0,0.0,0.0,0.0,0.0,0.0,0.0,0.0,0.0,0.0,16,26.9,3.3625,0.5,0.5,24.517453798767967,0.275,1.0,0.5,0.0,0.5,0.0,8.0,8.0,12.0,8.0,46.0,0.0,49.0,183.0,0.0,0.0,0.0,0.0,0.0,,2
00-0030280,2014,veteran,RB,11.216380544346183,5.5116526329450855,1.416377579977461,61.82079335935967,243.61869141468955,1.7279015431894975,15.886629931507324,11.76732899880756,92.84484095181122,0.3186016788953224,0.7997779908431171,3.940724118478264,0.7407064336200017,7.890052276197906,0.008334631362334633,0.00010388477316626229,3.225090117464839e-05,1.605780506838244e-05,1.2826594421139678e-10,1.3669865481260594e-11,0.09613580345765363,50.20948108687654,50.3056168903342,veteran,Knile Davis,RB,16.0,115.0,25.0,16.0,147.0,1.0,134.0,463.0,6.0,0.0,0.0,0.0,0.0,0.0,0.0,2.0,0.0,2.0,0.0,2.0,0.0,0.0,0.0,2.0,0.0,0.0,0.0,0.0,0.0,16,65.2,4.075,1.0,1.0,22.90759753593429,0.55,1.0,1.0,0.0,0.0,0.0,0.0,16.0,15.0,11.0,75.0,0.0,70.0,242.0,4.0,0.0,0.0,0.0,0.0,,2
00-0030282,2014,veteran,RB,9.40879138587293,2.762683815633116,1.05639410217589,25.993515686419425,103.17278605860258,0.6936726512780995,9.939391728639484,7.463276769652191,58.54615017451954,0.20756073124959748,0.5274264993158015,3.969173977974293,0.750878622496326,7.844563719328333,0.0012299574770170325,4.427312109113424e-06,1.4804546888366142e-06,4.36544240224616e-06,7.054381722728682e-12,1.3670053825416381e-11,0.011703829271114014,24.256079304672888,24.267783133944,veteran,Stepfan Taylor,RB,12.0,60.199999999999996,15.0,11.0,79.0,3.0,63.0,208.0,1.0,0.0,0.0,0.0,0.0,0.0,0.0,0.0,0.0,0.0,0.0,0.0,0.0,0.0,0.0,0.0,0.0,0.0,0.0,0.0,0.0,16,22.6,1.8833333333333333,0.75,0.75,23.23066392881588,0.41250000000000003,1.0,0.75,0.0,0.25,0.0,4.0,12.0,9.0,8.0,71.0,0.0,36.0,115.0,0.0,0.0,0.0,0.0,0.0,,2
00-0030287,2014,veteran,RB,8.880684240166971,9.652560333114087,3.5431825092608857,85.72134042754712,373.8480667523413,2.3163632809010304,31.46588507002841,22.778296004227336,175.76594159025638,0.6539996430552817,0.4653706927784909,4.3612018301128055,0.7239045065325019,7.716377974789539,0.05409571189910647,0.0024202482939544305,0.0006987521227029629,0.0010669829136534038,1.4706738736541544e-06,1.3669258533592666e-11,0.5345530508469009,83.24198499455431,83.77653804540121,veteran,Andre Ellington,RB,12.0,155.5,64.0,46.0,395.0,2.0,201.0,660.0,3.0,0.0,0.0,0.0,0.0,0.0,0.0,2.0,1.0,0.0,0.0,1.0,1.0,0.0,0.0,0.0,0.0,0.0,0.0,0.0,0.0,16,148.3,9.886666666666667,0.9375,0.9375,25.574264202600958,0.515625,1.0,0.9375,0.0,0.0625,0.0,1.0,15.0,57.0,39.0,371.0,1.0,118.0,652.0,3.0,0.0,0.0,0.0,0.0,,2
00-0030348,2014,veteran,RB,7.564956908366792,3.945230937279027,0.25567666857139404,29.84550203407137,120.71250581372419,0.8031127718724486,1.934182980217374,1.4343860976380665,11.280845792718825,0.04304062208401456,0.4444838134058765,4.044579504004316,0.7415979316894115,7.864581099394677,0.0034867432895132086,2.461901359134328e-05,7.906282985282575e-06,1.7197440197519586e-08,9.357622968839299e-14,1.3670854483057218e-11,0.026776177087094774,18.104480946390364,18.131257123477457,veteran,Khiry Robinson,RB,9.0,60.5,11.0,8.0,63.0,0.0,76.0,362.0,3.0,0.0,0.0,0.0,0.0,0.0,0.0,2.0,0.0,0.0,0.0,0.0,0.0,0.0,0.0,0.0,0.0,0.0,0.0,0.0,0.0,16,28.400000000000002,2.8400000000000003,0.625,0.625,24.67624914442163,0.34375,1.0,0.625,0.0,0.375,0.0,6.0,10.0,0.0,0.0,0.0,0.0,54.0,224.0,1.0,0.0,0.0,0.0,0.0,,2
00-0030388,2014,veteran,RB,7.869083283260796,5.736046552062056,1.4273517655713646,45.13742803483725,176.6709631812376,1.2333130540203665,11.231949917790407,8.374972467153695,65.89465369806871,0.23295302178548463,0.49788238848265826,3.914068011249605,0.7456383378177716,7.86804421823533,0.009156741119639796,0.000121412043231976,3.755443818652903e-05,1.694346287582131e-05,1.445551862081531e-10,1.3669857717853453e-11,0.07421263013876128,36.24587959937727,36.32009222951603,veteran,Joseph Randle,RB,14.0,52.6,5.0,4.0,23.0,0.0,51.0,343.0,3.0,0.0,0.0,0.0,0.0,0.0,0.0,2.0,0.0,0.0,0.0,0.0,0.0,0.0,0.0,0.0,0.0,0.0,0.0,0.0,0.0,16,38.5,5.5,0.4375,0.4375,22.67488021902806,0.24062500000000003,1.0,0.4375,0.0,0.5625,0.0,9.0,7.0,10.0,8.0,61.0,0.0,54.0,164.0,2.0,0.0,0.0,0.0,0.0,,2
00-0030391,2014,veteran,RB,7.335503480236426,6.988289649800648,1.5013687885653266,51.262623047012845,212.4054732111363,1.355021438201655,11.0132959736393,8.307740678632545,66.01915764076966,0.22686955090802646,0.4641224221418528,4.143476486100598,0.7543373662632336,7.946704187646409,0.01887553166393252,0.0004048993781115394,0.0001217597500190372,2.3716663223711693e-05,3.0568652898865383e-10,1.3669809087785978e-11,0.14487705477776264,40.559434514881254,40.70431156965902,veteran,Mike James,RB,5.0,3.7,1.0,1.0,-5.0,0.0,19.0,37.0,0.0,0.0,0.0,0.0,0.0,0.0,0.0,0.0,0.0,0.0,0.0,0.0,0.0,0.0,0.0,0.0,0.0,0.0,0.0,0.0,0.0,16,45.38,6.482857142857143,0.4375,0.4375,23.38672142368241,0.24062500000000003,1.0,0.4375,0.0,0.5625,0.0,9.0,7.0,11.0,10.0,43.0,0.0,60.0,295.0,0.0,1.0,2.0,1.0,0.0,,2
00-0030456,2014,veteran,RB,11.315307517129924,12.515726951056164,4.179408991108409,141.6192992516314,569.0481789956426,3.856452647902014,47.291297974249375,36.03618375209392,277.40984592357887,1.3778377583574652,0.8068319255077226,4.0181541781572365,0.7620045398566986,7.698091668973124,0.08785893230446438,0.0056811468937708505,0.0016112327747165116,0.0030889887886561885,1.5758667913047705e-05,1.3669104534604992e-11,1.16226024166661,132.45597295451054,133.61823319617716,veteran,Giovani Bernard,RB,13.0,167.4,59.0,43.0,349.0,2.0,168.0,680.0,5.0,0.0,0.0,0.0,0.0,0.0,0.0,0.0,0.0,1.0,0.0,1.0,0.0,0.0,0.0,1.0,0.0,0.0,0.0,0.0,0.0,16,194.9,12.18125,1.0,1.0,22.77618069815195,0.55,1.0,1.0,0.0,0.0,0.0,0.0,16.0,70.0,56.0,514.0,3.0,170.0,695.0,5.0,0.0,0.0,0.0,0.0,,2
00-0030485,2014,veteran,RB,9.83180450045814,17.76360280478025,2.9097503100970163,174.6482700003893,704.0461636772314,4.906459803699473,28.608096194021314,21.600247590766397,170.6687631831658,0.48039567661221216,0.7159459892323459,4.031223233277158,0.7550396728350117,7.9012410605942645,0.21434373084718678,0.030641004705934786,0.008502595577193897,0.0005587747074206793,3.4789949038699505e-07,1.3669352138523863e-11,2.731960819132386,129.16085738482835,131.89281820396073,veteran,Eddie Lacy,RB,16.0,255.6,55.0,42.0,427.0,4.0,246.0,1139.0,9.0,0.0,0.0,0.0,0.0,0.0,0.0,2.0,1.0,3.0,0.0,4.0,1.0,0.0,0.0,3.0,0.0,0.0,0.0,0.0,0.0,16,230.5,15.366666666666667,0.9375,0.9375,24.249144421629023,0.515625,1.0,0.9375,0.0,0.0625,0.0,1.0,15.0,44.0,35.0,257.0,0.0,284.0,1178.0,11.0,0.0,0.0,0.0,0.0,,2
00-0030496,2014,veteran,RB,10.323205744990542,16.783328857253274,4.7067957731774595,173.25775687926253,654.6208813565206,4.7702014105630095,48.58922116616275,35.04120839566319,271.9007964544092,0.7246736510051545,0.7849081578692495,3.7783063404930477,0.7211724648936272,7.7594583321521675,0.16006930681841172,0.017229097761086273,0.004799491929279883,0.00441653545538575,3.503919883293817e-05,1.3669052647818767e-11,2.064445334297859,141.57220603259506,143.63665136689292,veteran,Le'Veon Bell,RB,16.0,340.5,105.0,83.0,854.0,3.0,290.0,1361.0,8.0,0.0,0.0,0.0,0.0,0.0,0.0,0.0,2.5,9.0,0.0,11.5,1.0,1.0,0.0,4.0,2.0,1.0,0.0,0.0,0.0,16,195.4,15.03076923076923,0.8125,0.8125,22.535249828884325,0.446875,1.0,0.8125,0.125,0.0625,2.0,3.0,13.0,66.0,45.0,399.0,0.0,244.0,860.0,8.0,0.0,0.0,0.0,0.0,,2
00-0030522,2014,veteran,RB,10.5966268827145,8.073915073960604,2.0138929395272247,85.55626552148476,355.9602362132837,2.342296907652774,21.340472061903114,15.821045425019092,124.83319806590502,0.39632817933140435,1.1800222183459133,4.160539664086851,0.7413634234109905,7.890325494451602,0.02875317046662297,0.0008216977418168741,0.00024308032849815916,8.496617978295656e-05,5.2413693194680165e-09,1.3669624557286024e-11,0.3237995572935046,70.06157222564167,70.38537178293517,veteran,Montee Ball,RB,5.0,31.9,13.0,9.0,62.0,0.0,55.0,172.0,1.0,0.0,0.0,0.0,0.0,0.0,0.0,1.0,0.0,0.0,0.0,0.0,0.0,0.0,0.0,0.0,0.0,0.0,0.0,0.0,0.0,16,99.4,6.2125,1.0,1.0,23.73990417522245,0.55,1.0,1.0,0.0,0.0,0.0,0.0,16.0,27.0,20.0,145.0,0.0,120.0,559.0,4.0,0.0,0.0,0.0,0.0,,2
00-0030536,2014,veteran,RB,9.675814719980242,16.582596143500957,2.6595122556566393,160.45012786077416,629.9859092651095,4.357916937582848,25.732947831250367,19.087487991760764,152.8134339766236,0.6039967577653715,0.7356848342802081,3.9263658911619013,0.7417528732786965,8.005947877614199,0.17081932177679532,0.019535081118240132,0.005434771422438271,0.00035154746389930776,1.2390579097780224e-07,1.3669419175168152e-11,2.044917835647392,116.1237908235826,118.16870865922999,veteran,Zac Stacy,RB,9.0,55.5,23.0,18.0,152.0,0.0,76.0,293.0,1.0,0.0,0.0,0.0,0.0,0.0,0.0,2.0,0.0,0.0,0.0,0.0,0.0,0.0,0.0,0.0,0.0,0.0,0.0,0.0,0.0,16,174.4,13.415384615384616,0.8125,0.8125,23.397672826830938,0.446875,1.0,0.8125,0.0,0.1875,0.0,3.0,13.0,35.0,26.0,141.0,1.0,250.0,973.0,7.0,0.0,0.0,0.0,0.0,,2
00-0031045,2014,rookie,RB,11.095449696388512,11.117850452132208,2.5935541734939496,123.35755042360319,515.9685086426264,3.9362676923640745,28.7766498668606,21.102876569031103,175.0899274121429,0.3836886648914747,0.5997540376426223,4.182707153885744,0.7333333333333333,8.296969696969697,0.07110540419681685,0.0039017298112505026,0.0011150192450673432,0.0003501342872170987,1.2279897153523598e-07,1.3669419757808805e-11,0.8825138270087497,104.37751195824052,105.26002578524927,rookie,Carlos Hyde,RB,14.0,68.1,16.0,12.0,68.0,0.0,83.0,333.0,4.0,0.0,0.0,0.0,0.0,0.0,0.0,1.0,0.0,0.0,0.0,0.0,0.0,0.0,0.0,0.0,0.0,0.0,0.0,0.0,0.0,16,0.0,,,0.0,23.94798083504449,0.0,0.0,0.0,0.0,1.0,0.0,16.0,0.0,0.0,0.0,0.0,0.0,0.0,0.0,0.0,0.0,0.0,0.0,0.0,,2
00-0031055,2014,rookie,RB,10.57686273809555,4.594515371172092,0.9170586082830531,48.59555842895734,203.2609898878725,1.5506560075117626,9.699603022598787,7.113042216572443,59.01669572416772,0.12932804030131717,0.571722310167327,4.182707153885744,0.7333333333333333,8.296969696969697,0.005890603941762948,5.850125953720288e-05,1.8408514859720044e-05,2.6884143282524826e-06,2.3968004068773e-12,1.367012392545042e-11,0.06365009301100728,38.72074933603407,38.784399429045074,rookie,Andre Williams,RB,16.0,138.1,37.0,18.0,130.0,0.0,217.0,721.0,7.0,0.0,0.0,0.0,0.0,0.0,0.0,0.0,0.0,2.0,0.0,2.0,0.0,0.0,0.0,2.0,0.0,0.0,0.0,0.0,0.0,16,0.0,,,0.0,22.00958247775496,0.0,0.0,0.0,0.0,1.0,0.0,16.0,0.0,0.0,0.0,0.0,0.0,0.0,0.0,0.0,0.0,0.0,0.0,0.0,,2
00-0031057,2014,rookie,RB,10.58101353341715,4.143202246420367,0.802655391529033,43.83927904105824,183.36686606622766,1.3988858983765367,8.492907560438939,6.228132210988554,51.67462422329291,0.1132387674725192,0.5719466774820081,4.182707153885744,0.7333333333333333,8.296969696969697,0.0043984886344704205,3.61139123561793e-05,1.149365733601718e-05,1.502815337989064e-06,6.563671116690681e-13,1.3670208029900088e-11,0.047372781157769155,34.547069774576656,34.594442555734425,rookie,Ka'Deem Carey,RB,11.0,24.0,6.0,5.0,57.0,0.0,36.0,158.0,0.0,0.0,0.0,0.0,0.0,0.0,0.0,0.0,0.0,0.0,0.0,0.0,0.0,0.0,0.0,0.0,0.0,0.0,0.0,0.0,0.0,16,0.0,,,0.0,21.83709787816564,0.0,0.0,0.0,0.0,1.0,0.0,16.0,0.0,0.0,0.0,0.0,0.0,0.0,0.0,0.0,0.0,0.0,0.0,0.0,,2
00-0031060,2014,rookie,RB,10.544754954049617,3.558792434451535,0.6528658895280165,37.526594153617125,156.96275382730127,1.1974517949172732,6.884310822930562,5.048494603482411,41.887206740408615,0.0917908109724075,0.5699867542729523,4.182707153885744,0.7333333333333333,8.296969696969697,0.0028693610883960526,1.7855550705874163e-05,5.777770364391622e-06,6.262035332752657e-07,9.357622968839299e-14,1.367033462168547e-11,0.030667586959903126,29.004725485304373,29.035393072264277,rookie,De'Anthony Thomas,WR,12.0,50.4,31.0,23.0,156.0,0.0,14.0,113.0,1.0,0.0,0.0,0.0,0.0,0.0,0.0,0.0,0.0,0.0,0.0,0.0,0.0,0.0,0.0,0.0,0.0,0.0,0.0,0.0,0.0,16,0.0,,,0.0,21.65366187542779,0.0,0.0,0.0,0.0,1.0,0.0,16.0,0.0,0.0,0.0,0.0,0.0,0.0,0.0,0.0,0.0,0.0,0.0,0.0,,2
00-0031062,2014,rookie,RB,10.073050725545325,4.818709637608968,0.9540327297102346,48.53910661130927,203.0248684663461,1.5488546628415722,9.610020080201666,7.0473480588145545,58.47163328798258,0.12813360106935556,0.5444892284078554,4.182707153885744,0.7333333333333333,8.296969696969697,0.006741643649535906,7.312434728740669e-05,2.2889505749992837e-05,3.2021494974724043e-06,3.537953816857342e-12,1.3670098638179646e-11,0.06950718639275302,38.64627533149,38.71578251788276,rookie,James White,RB,3.0,8.6,5.0,5.0,23.0,0.0,9.0,38.0,0.0,0.0,0.0,0.0,0.0,0.0,0.0,0.0,0.0,0.0,0.0,0.0,0.0,0.0,0.0,0.0,0.0,0.0,0.0,0.0,0.0,16,0.0,,,0.0,22.576317590691307,0.0,0.0,0.0,0.0,1.0,0.0,16.0,0.0,0.0,0.0,0.0,0.0,0.0,0.0,0.0,0.0,0.0,0.0,0.0,,2
00-0031066,2014,rookie,RB,9.910561505228227,4.709443111141913,0.9198644954359195,46.6732256083453,195.22043464694917,1.48931548518652,9.11637365849341,6.685340682895167,55.4680690598999,0.12155164877991215,0.5357060273096339,4.182707153885744,0.7333333333333333,8.296969696969697,0.0063174351500835954,6.567282809272811e-05,2.0609046122714774e-05,2.7248959295703953e-06,2.469831460632061e-12,1.3670121976357258e-11,0.06402111150795223,37.00531146131182,37.069332572819775,rookie,Lorenzo Taliaferro,RB,12.0,66.6,10.0,8.0,114.0,0.0,68.0,292.0,4.0,0.0,0.0,0.0,0.0,0.0,0.0,1.0,0.0,0.0,0.0,0.0,0.0,0.0,0.0,0.0,0.0,0.0,0.0,0.0,0.0,16,0.0,,,0.0,22.691307323750856,0.0,0.0,0.0,0.0,1.0,0.0,16.0,0.0,0.0,0.0,0.0,0.0,0.0,0.0,0.0,0.0,0.0,0.0,0.0,,2
00-0031285,2014,rookie,RB,10.567852510895918,5.7886373385639525,1.21983424994829,61.17346563300893,255.87069233117015,1.9520097113981232,12.891028441192875,9.453420856874773,78.4347463821913,0.17188037921590502,0.5712352708592389,4.182707153885744,0.7333333333333333,8.296969696969697,0.011349092106004082,0.00017337415802780567,5.3180580139057754e-05,9.707751815829075e-06,4.1820182186929466e-11,1.366993825649963e-11,0.1239104204016392,49.758124301739215,49.88203472214085,rookie,Devonta Freeman,RB,16.0,72.3,37.0,30.0,225.0,1.0,65.0,248.0,1.0,0.0,0.0,0.0,0.0,0.0,0.0,1.0,0.0,0.0,0.0,0.0,0.0,0.0,0.0,0.0,0.0,0.0,0.0,0.0,0.0,16,0.0,,,0.0,22.46406570841889,0.0,0.0,0.0,0.0,1.0,0.0,16.0,0.0,0.0,0.0,0.0,0.0,0.0,0.0,0.0,0.0,0.0,0.0,0.0,,2
00-0031301,2014,rookie,RB,12.023881398952089,7.921597039441119,1.8189163515080191,95.24834329253001,398.39592688543047,3.039319240420412,21.87043448514707,16.03831862244118,133.06944360073925,0.2916057931352943,0.6499395350784913,4.182707153885744,0.7333333333333333,8.296969696969697,0.027658720866801045,0.0007695554124970047,0.0002279990247730998,6.302438385415773e-05,2.6947365003481494e-09,1.3669667757091243e-11,0.35268545697693,79.85136749101483,80.20405294799176,rookie,Jeremy Hill,RB,16.0,205.4,32.0,27.0,215.0,0.0,222.0,1124.0,9.0,0.0,0.0,0.0,0.0,0.0,0.0,2.0,0.0,8.0,0.0,8.0,0.0,0.0,0.0,5.0,2.0,0.0,0.0,0.0,0.0,16,0.0,,,0.0,21.864476386036962,0.0,0.0,0.0,0.0,1.0,0.0,16.0,0.0,0.0,0.0,0.0,0.0,0.0,0.0,0.0,0.0,0.0,0.0,0.0,,2
00-0031375,2014,rookie,RB,10.270695314564177,8.098061407448077,1.794329957396768,83.17272135452994,347.88713661773795,2.65399316725726,18.429016286217124,13.514611943225889,112.13032575924996,0.24572021714956166,0.5551727197061718,4.182707153885744,0.7333333333333333,8.296969696969697,0.029435182195567094,0.0008549223601916424,0.000252678718707408,5.906506147672179e-05,2.3321910518043976e-09,1.3669677139646365e-11,0.3212878062034882,69.04698707634033,69.36827488254382,rookie,Terrance West,RB,14.0,108.2,13.0,11.0,64.0,1.0,171.0,673.0,4.0,0.0,0.0,0.0,0.0,0.0,0.0,1.0,0.0,1.0,0.0,1.0,0.0,0.0,0.0,1.0,0.0,0.0,0.0,0.0,0.0,16,0.0,,,0.0,23.61122518822724,0.0,0.0,0.0,0.0,1.0,0.0,16.0,0.0,0.0,0.0,0.0,0.0,0.0,0.0,0.0,0.0,0.0,0.0,0.0,,2
00-0031376,2014,rookie,RB,10.75878788169196,5.919619074039787,1.260640728643813,63.68792595801184,266.3879435207217,2.0322446780219936,13.562966194500378,9.946175209300277,82.52311431231563,0.18083954926000506,0.5815561017130789,4.182707153885744,0.7333333333333333,8.296969696969697,0.012094764782118633,0.00019271784937952737,5.8967649316036925e-05,1.129150012474477e-05,5.855215981779694e-11,1.3669916403049106e-11,0.1346254494190315,51.97958654821971,52.11421199763874,rookie,Jerick McKinnon,RB,11.0,82.8,41.0,27.0,135.0,0.0,113.0,538.0,0.0,0.0,0.0,0.0,0.0,0.0,0.0,0.0,0.0,2.0,0.0,2.0,0.0,0.0,0.0,2.0,0.0,0.0,0.0,0.0,0.0,16,0.0,,,0.0,22.32991101984942,0.0,0.0,0.0,0.0,1.0,0.0,16.0,0.0,0.0,0.0,0.0,0.0,0.0,0.0,0.0,0.0,0.0,0.0,0.0,,2
00-0031390,2014,rookie,RB,10.726261520935159,10.177164069737062,2.340146840203715,109.1629233534645,456.5965404496171,3.483325397794544,25.101027005415105,18.407419803971077,152.7258043129479,0.3346803600722014,0.5797979200505492,4.182707153885744,0.7333333333333333,8.296969696969697,0.05578723979765512,0.0025529958545200742,0.0007362189621084352,0.00021211186230414046,4.021066825099425e-08,1.3669492250786575e-11,0.6575342442106594,91.88438308534141,92.54191732955208,rookie,Charles Sims,RB,8.0,51.0,27.0,19.0,190.0,0.0,66.0,185.0,1.0,0.0,0.0,0.0,0.0,0.0,0.0,1.0,0.0,0.0,0.0,0.0,0.0,0.0,0.0,0.0,0.0,0.0,0.0,0.0,0.0,16,0.0,,,0.0,23.95071868583162,0.0,0.0,0.0,0.0,1.0,0.0,16.0,0.0,0.0,0.0,0.0,0.0,0.0,0.0,0.0,0.0,0.0,0.0,0.0,,2
00-0031391,2014,rookie,RB,11.753965924560099,5.101958448044503,1.0924588653596063,59.96824574683661,250.8296104912718,1.9135518457559801,12.840724277420401,9.41653113677496,78.12867349239346,0.17120965703227203,0.635349509435681,4.182707153885744,0.7333333333333333,8.296969696969697,0.007927376682271533,9.561257739343159e-05,2.9740740463722513e-05,5.875539627463777e-06,1.3670008925519383e-11,1.3670010866408746e-11,0.0956320606144366,48.841963964612155,48.93759602522659,rookie,Tre Mason,RB,12.0,129.3,26.0,16.0,148.0,1.0,179.0,765.0,4.0,0.0,0.0,0.0,0.0,0.0,0.0,1.0,0.0,2.0,0.0,2.0,0.0,0.0,0.0,2.0,0.0,0.0,0.0,0.0,0.0,16,0.0,,,0.0,21.07049965776865,0.0,0.0,0.0,0.0,1.0,0.0,16.0,0.0,0.0,0.0,0.0,0.0,0.0,0.0,0.0,0.0,0.0,0.0,0.0,,2
00-0031413,2014,rookie,RB,12.019694257880946,8.16749606142067,1.881173009719227,98.17080551072327,410.61973051242825,3.1325733101723325,22.61112442300281,16.581491243535392,137.57613037818152,0.3014816589733708,0.6497132031286998,4.182707153885744,0.7333333333333333,8.296969696969697,0.03015325032699784,0.0008905077530308801,0.00026294987885249957,7.401602856540113e-05,3.854783680758354e-09,1.3669644509568995e-11,0.38569917036045653,82.4152351194455,82.80093428980595,rookie,Bishop Sankey,RB,16.0,87.2,23.0,18.0,133.0,0.0,152.0,569.0,2.0,0.0,0.0,0.0,0.0,0.0,0.0,2.0,0.0,0.0,0.0,0.0,0.0,0.0,0.0,0.0,0.0,0.0,0.0,0.0,0.0,16,0.0,,,0.0,21.960301163586585,0.0,0.0,0.0,0.0,1.0,0.0,16.0,0.0,0.0,0.0,0.0,0.0,0.0,0.0,0.0,0.0,0.0,0.0,0.0,,2
00-0022178,2015,veteran,RB,0.0,6.810251733886067,2.5245671061415083,0.0,0.0,0.0,0.0,0.0,0.0,0.0,0.0,3.9241551585100902,0.7421597510482671,7.909810199805235,0.00023790629861951344,2.7944656115286432e-05,4.6463980048910936e-10,1.1580431136741723e-05,0.0001457185470107742,1.3670064026801089e-11,0.0,0.0,0.0,veteran,,,0.0,0.0,0.0,0.0,0.0,0.0,0.0,0.0,0.0,0.0,0.0,0.0,0.0,0.0,0.0,0.0,0.0,0.0,0.0,0.0,0.0,0.0,0.0,0.0,0.0,0.0,0.0,0.0,0.0,16,0.0,7.393749999999999,0.66796875,0.0,33.86173853524983,0.3,0.0,0.6875,0.0,1.0,0.0,16.0,0.0,0.0,0.0,0.0,0.0,0.0,0.0,0.0,0.0,0.0,0.0,0.0,,3
00-0022736,2015,veteran,RB,8.621102388634906,9.280068406902187,2.702935378919606,80.00441990943978,311.4523137656405,2.192925011767202,23.30228265152961,16.937246177704125,134.07030890773814,0.4439855500483188,0.37659089928848605,3.892938841606325,0.7268492289356181,7.915708817188109,0.06904038788825895,0.010992697477144769,0.0005039564709966413,0.0045931703168726684,0.002159313027151537,1.366959017683949e-11,0.8135690091943061,68.08916692850607,68.90273593770038,veteran,Steven Jackson,RB,2.0,13.5,1.0,1.0,20.0,0.0,21.0,50.0,1.0,0.0,0.0,0.0,0.0,0.0,0.0,0.0,0.0,0.0,0.0,0.0,0.0,0.0,0.0,0.0,0.0,0.0,0.0,0.0,0.0,16,132.5,9.823508771929824,0.9006578947368421,0.9375,32.11225188227242,0.890625,1.0,1.0,0.0,0.0625,0.0,1.0,15.0,27.0,20.0,148.0,0.0,190.0,707.0,6.0,0.0,0.0,0.0,0.0,,3
00-0023437,2015,veteran,RB,4.279208311319973,0.42591848607627053,1.9538961065128042,1.822593925562397,7.346386222186113,0.047667933778825604,8.361128458445327,6.276627559669646,49.61503606405785,0.1694951718738536,0.2078840065972326,4.030731211791591,0.7506914396620484,7.904728389949141,0.0011629331317452275,0.00014624812671026045,2.1679992092189412e-08,0.002569461387685623,0.0016613732006534893,1.3669636306376192e-11,0.02757466162373005,9.721666629180827,9.749241290804557,veteran,,,0.0,0.0,0.0,0.0,0.0,0.0,0.0,0.0,0.0,0.0,0.0,0.0,0.0,0.0,0.0,0.0,0.0,0.0,0.0,0.0,0.0,0.0,0.0,0.0,0.0,0.0,0.0,0.0,0.0,16,13.2,2.739252336448598,0.7207943925233644,0.5,33.719370294318956,0.6687500000000001,1.0,0.875,0.0,0.5,0.0,8.0,8.0,8.0,5.0,44.0,0.0,20.0,63.0,0.0,0.0,0.0,0.0,0.0,,3
00-0023500,2015,veteran,RB,9.366203465204084,11.555877170994009,1.7800561911323163,108.23469680243684,449.1875085187472,2.819780800061192,16.672368465641483,11.79633116514418,93.12411524153698,0.4286209601868935,0.9264510680310214,4.150124884062446,0.707537815605151,7.8943286635339875,0.10320999444479806,0.01727050559337583,0.0014585438095622222,0.0019048492971496845,0.001451647677712372,1.3669660044419961e-11,1.274882295388452,77.76683638402697,79.04171867941542,veteran,Frank Gore,RB,16.0,176.4,58.0,34.0,267.0,1.0,260.0,967.0,6.0,0.0,0.0,0.0,0.0,0.0,0.0,3.0,0.0,0.0,0.0,0.0,0.0,0.0,0.0,0.0,0.0,0.0,0.0,0.0,0.0,16,158.7,11.0296875,1.0,1.0,32.30116358658453,1.0,1.0,1.0,0.0,0.0,0.0,0.0,16.0,19.0,11.0,111.0,1.0,255.0,1106.0,4.0,0.0,0.0,0.0,0.0,,3
00-0023545,2015,veteran,RB,0.0,3.437511264522556,1.6190540114461633,0.0,0.0,0.0,0.0,0.0,0.0,0.0,0.0,4.071906802148295,0.7203749834396742,7.9047146104275825,0.00023790629861951344,2.7944656115286432e-05,4.6463980048910936e-10,1.1580431136741723e-05,0.0001457185470107742,1.3670064026801089e-11,0.0,0.0,0.0,veteran,,,0.0,0.0,0.0,0.0,0.0,0.0,0.0,0.0,0.0,0.0,0.0,0.0,0.0,0.0,0.0,0.0,0.0,0.0,0.0,0.0,0.0,0.0,0.0,0.0,0.0,0.0,0.0,0.0,0.0,16,0.0,6.18125,0.39843750000000006,0.0,33.15537303216975,0.15,0.0,0.4375,0.0,1.0,0.0,16.0,0.0,0.0,0.0,0.0,0.0,0.0,0.0,0.0,0.0,0.0,0.0,0.0,,3
00-0023564,2015,veteran,RB,8.713349884539578,5.496054254462678,4.738848776849883,47.88904370354563,203.54255498365876,1.4492554767006915,41.29124744261545,29.93937690791204,235.78911167317833,0.954559824780731,0.6528484403300803,4.250294832439696,0.725078043464788,7.875551732369775,0.03658035378556973,0.005500708711850638,9.974267495019658e-05,0.01403160034723137,0.003581694804142021,1.3669501047426028e-11,0.5614450900292258,72.0200500478681,72.58149513789732,veteran,Darren Sproles,RB,16.0,134.0,83.0,55.0,388.0,1.0,83.0,317.0,3.0,0.0,0.0,0.0,0.0,0.0,0.0,0.0,0.0,0.0,0.0,0.0,0.0,0.0,0.0,0.0,0.0,0.0,0.0,0.0,0.0,16,140.1,9.919387755102042,0.9209183673469388,0.9375,32.199863107460644,0.91875,1.0,0.9375,0.0,0.0625,0.0,1.0,15.0,62.0,40.0,387.0,0.0,57.0,329.0,6.0,0.0,0.0,0.0,0.0,,3
00-0024204,2015,veteran,RB,6.965722774913665,8.638038625911511,5.107977783013048,60.17018238709576,241.00048066498468,1.618701076065421,35.580757176887005,26.182097903164053,207.11942006405621,0.6722826720082609,0.42436884992741275,4.005314112470934,0.7358499363293974,7.910726666369476,0.06486876644861318,0.010260863284432223,0.0004287592615465935,0.016987286494483132,0.003907864253353284,1.366948568261953e-11,0.7242029508991692,70.80020381307338,71.52440676397255,veteran,Fred Jackson,RB,15.0,61.7,41.0,32.0,257.0,2.0,26.0,100.0,0.0,0.0,0.0,0.0,0.0,0.0,0.0,1.0,0.0,0.0,0.0,0.0,0.0,0.0,0.0,0.0,0.0,0.0,0.0,0.0,0.0,16,155.6,11.725,0.8910714285714286,0.875,34.52703627652293,0.875,1.0,1.0,0.0625,0.0625,1.0,2.0,14.0,90.0,66.0,501.0,1.0,141.0,525.0,2.0,1.0,0.0,0.0,0.0,,3
00-0024217,2015,veteran,RB,7.596376727314718,9.778653025497842,4.42873031795723,74.28233226737747,306.25766768312883,1.9457269927259642,33.642303918883414,24.121350786050513,190.75767282741765,0.7456709924679811,0.6823770515756272,4.12288707603797,0.7169946161895056,7.908250019635454,0.0807894852380252,0.013094278116278467,0.0007600175425528121,0.012057993178287608,0.0033430180735521393,1.3669513201543501e-11,0.9041470249390221,76.54584325209231,77.44999027703133,veteran,Reggie Bush,RB,5.0,6.7,10.0,4.0,19.0,0.0,8.0,28.0,0.0,0.0,0.0,0.0,0.0,0.0,0.0,0.0,0.0,0.0,0.0,0.0,0.0,0.0,0.0,0.0,0.0,0.0,0.0,0.0,0.0,16,87.0,11.196047430830038,0.8090415019762847,0.6875,30.49965776865161,0.790625,1.0,1.0,0.0625,0.25,1.0,5.0,11.0,56.0,40.0,253.0,0.0,76.0,297.0,2.0,0.0,0.0,0.0,0.0,,3
00-0024242,2015,veteran,RB,3.9439343823220376,7.620941531847368,2.082333019761167,30.056493333118812,121.26912938818163,0.7549490394187606,8.212584792080541,6.050204901310664,47.656976323133854,0.21696872739012907,0.3763330859027455,4.034706512304845,0.7366992310563324,7.87691939372332,0.054673818392239566,0.008504214892857437,0.0002761578155126314,0.0027864693751708794,0.0017232516810214596,1.3669629872771868e-11,0.2893025868560826,24.99655345083473,25.28585603769081,veteran,DeAngelo Williams,RB,16.0,216.9,47.0,40.0,367.0,0.0,200.0,907.0,11.0,0.0,0.0,0.0,0.0,0.0,0.0,2.0,0.0,5.5,0.0,5.5,0.0,0.0,0.0,4.0,1.0,0.0,0.0,0.0,0.0,16,26.8,7.983333333333332,0.7702205882352939,0.375,32.35318275154004,0.6375000000000001,1.0,1.0,0.375,0.25,6.0,10.0,6.0,6.0,5.0,44.0,0.0,62.0,219.0,0.0,0.0,0.0,0.0,0.0,,3
00-0024275,2015,veteran,RB,7.2463810311858925,6.413303208831348,2.5747349016329553,46.47323871971909,178.75908716491682,1.1843152074254801,18.657510151525322,13.615904329305177,107.7606940172106,0.3558360025211846,0.4101725342629907,3.8464951462284773,0.7297814241409927,7.914325145872235,0.039626189164231135,0.005995783301136791,0.00012197437738744261,0.004201325322472557,0.002074084621824189,1.366959726468446e-11,0.40707462220944685,43.880492474019334,44.287567096228784,veteran,,,0.0,0.0,0.0,0.0,0.0,0.0,0.0,0.0,0.0,0.0,0.0,0.0,0.0,0.0,0.0,0.0,0.0,0.0,0.0,0.0,0.0,0.0,0.0,0.0,0.0,0.0,0.0,0.0,0.0,16,22.2,6.366026200873362,0.7611899563318778,0.6875,30.442162902121833,0.7156250000000001,1.0,0.9375,0.0,0.3125,0.0,5.0,11.0,16.0,11.0,71.0,0.0,43.0,96.0,0.0,0.0,0.0,0.0,0.0,,3
00-0024813,2015,veteran,RB,7.5911147635878375,7.015085267225294,4.393269146498391,53.25231733986146,218.0521793236841,1.4044603710736439,33.34981027839888,26.427328064277706,209.00094658705157,0.8309081700201674,0.40876924564329215,4.094698413442816,0.7924281380813445,7.908515990671107,0.049511344919374645,0.007632131182013063,0.00021438993477355223,0.01453218190289997,0.0036393369153825813,1.366949823320763e-11,0.6177611912005583,68.51364937848871,69.13141056968927,veteran,Pierre Thomas,RB,4.0,19.3,11.0,9.0,84.0,0.0,15.0,64.0,0.0,0.0,0.0,0.0,0.0,0.0,0.0,0.0,0.0,0.0,0.0,0.0,0.0,0.0,0.0,0.0,0.0,0.0,0.0,0.0,0.0,16,100.5,9.493511450381678,0.8449427480916031,0.6875,30.702258726899384,0.8187500000000001,1.0,1.0,0.25,0.0625,4.0,5.0,11.0,55.0,45.0,378.0,1.0,45.0,222.0,2.0,0.0,0.0,0.0,0.0,,3
00-0025394,2015,veteran,RB,1.7190928287241718,16.925158231812567,3.2987830931782036,29.095918141330866,127.10791827561327,0.8069808126616443,5.670914358999191,4.193148048786255,33.20982860051287,0.13470656520953916,0.1670231016974998,4.368582481508152,0.7394130440591358,7.92002290740146,0.1845580084591918,0.03434615373685962,0.007450386825267308,0.007095924250287734,0.0026285522834856422,1.366955555694425e-11,0.4504311424353659,23.444426775837844,23.89485791827321,veteran,Adrian Peterson,RB,16.0,257.7,36.0,30.0,222.0,0.0,327.0,1485.0,11.0,0.0,0.0,0.0,0.0,0.0,0.0,3.0,0.0,12.0,0.0,12.0,0.0,0.0,0.0,7.0,2.0,1.0,0.0,0.0,0.0,16,10.3,17.686713286713285,0.8544580419580419,0.0625,30.4476386036961,0.446875,1.0,1.0,0.0,0.9375,0.0,15.0,1.0,3.0,2.0,18.0,0.0,21.0,75.0,0.0,0.0,0.0,0.0,0.0,,3
00-0025399,2015,veteran,RB,10.90899723692202,16.71911774696907,2.5622339364693794,182.38880930545946,783.1976570475385,5.556806540417998,27.95140293329229,21.187069884343458,166.93193909285796,1.1241033769891828,0.9482448391774838,4.294110258353965,0.7579966535099394,7.878953531758308,0.17771488929869883,0.0327860808875111,0.0066683926618631055,0.004447544758393032,0.0021281192538015184,1.3669592738079787e-11,2.7040188136503813,143.79546438229949,146.49948319594986,veteran,Marshawn Lynch,RB,7.0,77.2,21.0,13.0,80.0,0.0,111.0,417.0,3.0,0.0,0.0,0.0,0.0,0.0,0.0,0.0,0.0,1.0,0.0,1.0,0.0,0.0,0.0,1.0,0.0,0.0,0.0,0.0,0.0,16,288.8,17.321562500000002,1.0,1.0,29.360711841204655,1.0,1.0,1.0,0.0,0.0,0.0,0.0,16.0,48.0,37.0,367.0,4.0,280.0,1306.0,13.0,0.0,0.0,0.0,0.0,,3
00-0025439,2015,veteran,RB,1.1047780569919432,1.5980367695120268,2.5698699370678817,1.7654759572231786,7.1556604835973765,0.04621836246949484,2.8391359157958616,2.12415286956916,16.805296556634847,0.05875965109999148,0.060495813085076386,4.053105597004066,0.7481687853516238,7.9115287780786945,0.005781336359931935,0.000781577735195548,1.0632320663787225e-06,0.004395116859563784,0.0021167529247332092,1.3669593680662505e-11,0.01604808968851487,3.967048594054567,3.983096683743082,veteran,,,0.0,0.0,0.0,0.0,0.0,0.0,0.0,0.0,0.0,0.0,0.0,0.0,0.0,0.0,0.0,0.0,0.0,0.0,0.0,0.0,0.0,0.0,0.0,0.0,0.0,0.0,0.0,0.0,0.0,16,2.0,2.755244755244756,0.8649475524475524,0.0625,31.575633127994525,0.44687499999999997,1.0,1.0,0.0,0.9375,0.0,15.0,1.0,1.0,1.0,15.0,0.0,0.0,0.0,0.0,0.0,0.0,0.0,0.0,,3
00-0025487,2015,veteran,RB,0.10165167425343569,3.9966538542559267,1.610514120332999,0.40626655569656167,1.6209549712603253,0.01131040511979555,0.16371145674064852,0.11960434198268399,0.9449614311842041,0.0044067547900704315,0.006333318672388725,3.989880408642369,0.7305801583096352,7.900728481253742,0.02088770948297099,0.0030233552511658834,2.471296707853163e-05,0.0016731522974173932,0.0013692184799877956,1.3669670326415884e-11,0.002968142315394671,0.3980301333502133,0.400998275665608,veteran,,,0.0,0.0,0.0,0.0,0.0,0.0,0.0,0.0,0.0,0.0,0.0,0.0,0.0,0.0,0.0,0.0,0.0,0.0,0.0,0.0,0.0,0.0,0.0,0.0,0.0,0.0,0.0,0.0,0.0,16,0.0,4.4609756097560975,0.8551829268292683,0.0,31.208761122518823,0.384375,0.0,0.875,0.0,1.0,0.0,16.0,0.0,0.0,0.0,0.0,0.0,0.0,0.0,0.0,0.0,0.0,0.0,0.0,,3
00-0025637,2015,veteran,RB,6.488589143244436,10.710927840263812,3.641573481372092,69.49881009841035,292.1944045652447,1.8720560562975634,23.628674155557803,18.01564437952682,142.35268012243205,1.122388659495043,0.6774031059081898,4.204308018389053,0.7624483820345579,7.901614681304613,0.09449320841868376,0.01562086256866037,0.0011511594160577945,0.00917292144964336,0.0029527326187559545,1.366953507399725e-11,0.8683603680676696,69.07439274147035,69.94275310953802,veteran,Ahmad Bradshaw,RB,6.0,37.9,14.0,10.0,64.0,3.0,31.0,85.0,0.0,0.0,0.0,0.0,0.0,0.0,0.0,0.0,0.0,0.0,0.0,0.0,0.0,0.0,0.0,0.0,0.0,0.0,0.0,0.0,0.0,16,135.5,13.207647058823529,0.6404411764705883,0.625,29.453798767967147,0.53125,1.0,0.875,0.0,0.375,0.0,6.0,10.0,47.0,38.0,300.0,6.0,90.0,425.0,2.0,0.0,0.0,0.0,0.0,,3
00-0025701,2015,veteran,RB,6.081077855889701,1.0607948790536088,1.0664842663456495,6.450776248654094,25.8837217117773,0.1785869114688208,6.4853738557293035,4.949739809063753,39.1410719264497,0.15779815814201784,0.29217994460678526,4.0124972118166005,0.7632158020760913,7.907702916984895,0.0033112057864751474,0.00043618911142186427,2.7428222502396935e-07,0.0008364383142236,0.0010018406976130129,1.3669725259884856e-11,0.038342639566000675,10.411299796806038,10.449642436372038,veteran,,,0.0,0.0,0.0,0.0,0.0,0.0,0.0,0.0,0.0,0.0,0.0,0.0,0.0,0.0,0.0,0.0,0.0,0.0,0.0,0.0,0.0,0.0,0.0,0.0,0.0,0.0,0.0,0.0,0.0,16,12.2,2.304072398190045,0.7072963800904977,0.625,31.917864476386036,0.690625,1.0,0.9375,0.0,0.375,0.0,6.0,10.0,5.0,5.0,28.0,0.0,5.0,9.0,1.0,0.0,0.0,0.0,0.0,,3
00-0025860,2015,veteran,RB,0.7311281768031783,10.584911837258455,1.867932589906089,7.738927293197154,30.40147722400035,0.2089163566470584,1.3656981488492779,0.9972783042434881,7.889741612279606,0.030674215821371083,0.0635152527369478,3.928383879601058,0.7302333279749875,7.9112736923165885,0.08442054916585912,0.01375582771519954,0.0008534059655428808,0.002233185501991226,0.0015595435635065546,1.3669647433446508e-11,0.08139913457629719,5.638273965086421,5.719673099662718,veteran,,,0.0,0.0,0.0,0.0,0.0,0.0,0.0,0.0,0.0,0.0,0.0,0.0,0.0,0.0,0.0,0.0,0.0,0.0,0.0,0.0,0.0,0.0,0.0,0.0,0.0,0.0,0.0,0.0,0.0,16,0.0,8.561702127659574,0.9800531914893617,0.0,30.16563997262149,0.440625,0.0,1.0,0.0,1.0,0.0,16.0,0.0,0.0,0.0,0.0,0.0,0.0,0.0,0.0,0.0,0.0,0.0,0.0,,3
00-0026019,2015,veteran,RB,3.0403616617303655,6.845372920695323,4.240226796482176,20.81240938832928,83.71032982580047,0.5548265033080934,12.891822989066172,10.02531832893669,79.15607738179625,0.46759181372166847,0.2186856918165767,4.022135460815108,0.7776493935294779,7.8956173544458155,0.04654052187801096,0.007135675677842357,0.00018318710508336415,0.012973986708664361,0.003456197901627436,1.366950733386143e-11,0.2303642299445805,26.996438403773436,27.226802633718016,veteran,Danny Woodhead,RB,16.0,203.1,106.0,80.0,755.0,6.0,98.0,336.0,3.0,0.0,0.0,0.0,0.0,0.0,0.0,0.0,0.0,0.0,0.0,0.0,0.0,0.0,0.0,0.0,0.0,0.0,0.0,0.0,0.0,16,9.7,9.363218390804597,0.8297413793103449,0.1875,30.598220396988363,0.54375,1.0,1.0,0.0,0.8125,0.0,13.0,3.0,6.0,5.0,34.0,0.0,15.0,38.0,0.0,0.0,0.0,0.0,0.0,,3
00-0026144,2015,veteran,RB,10.923889886940149,8.977459620282227,3.182163684879132,98.06878035641456,372.2741657772623,2.5146343378883866,34.76160569583935,24.386138168694266,193.44954096957062,0.5654403081453809,0.8447933406353054,3.796051754944786,0.7015250786189392,7.93276654267102,0.06346729714072803,0.010016694541601074,0.000405220301507537,0.005957237230846309,0.002428575580424974,1.3669569489797567e-11,0.9711652737724197,85.55630095396242,86.52746622773483,veteran,Darren McFadden,RB,16.0,182.2,53.0,40.0,328.0,0.0,239.0,1089.0,3.0,1.0,0.0,0.0,0.0,0.0,0.0,3.0,0.0,6.5,0.0,6.5,0.0,0.0,0.0,5.0,1.0,0.0,0.0,0.0,0.0,16,102.6,7.636544117647058,0.8841911764705882,1.0,28.01368925393566,0.8500000000000001,1.0,1.0,0.0,0.0,0.0,0.0,16.0,56.0,36.0,212.0,0.0,155.0,534.0,2.0,1.0,0.0,0.0,0.0,,3
00-0026153,2015,veteran,RB,8.6877681772197,9.671668490016843,2.177884605222873,84.02521372818684,349.1308566288601,2.115102890026334,18.920956566911965,14.393659716839306,113.83695111353512,0.4915438466170711,0.5787492762719942,4.155072520949051,0.7607257944881195,7.908826063211428,0.08041904759190178,0.013027107590595392,0.0007508847551822488,0.0032686637461705292,0.0018519090996225523,1.3669617203706272e-11,0.9340046325508279,67.97599249997562,68.90999713252644,veteran,Jonathan Stewart,RB,13.0,156.8,21.0,16.0,99.0,1.0,242.0,989.0,6.0,0.0,0.0,0.0,0.0,0.0,0.0,2.0,0.0,2.0,0.0,2.0,0.0,0.0,0.0,2.0,0.0,0.0,0.0,0.0,0.0,16,137.0,9.086407766990293,0.7032766990291264,0.8125,28.449007529089666,0.6437499999999999,1.0,0.8125,0.0625,0.125,1.0,3.0,13.0,31.0,25.0,181.0,1.0,175.0,809.0,3.0,0.0,0.0,0.0,0.0,,3
00-0026162,2015,veteran,RB,1.7102913323800824,3.933362272775314,2.0641410890008007,6.727195402238441,27.162566870135215,0.1774270336294147,3.5302826133276537,2.5832176067718957,20.408681682334308,0.08929385323427619,0.13109656463003427,4.037725269745696,0.731731107594513,7.900488765961111,0.020764486859000137,0.003004427155094219,2.43541761224268e-05,0.0027186062598005163,0.0017041935147962138,1.3669631829368224e-11,0.05232590581674506,7.386865850554978,7.439191756371723,veteran,,,0.0,0.0,0.0,0.0,0.0,0.0,0.0,0.0,0.0,0.0,0.0,0.0,0.0,0.0,0.0,0.0,0.0,0.0,0.0,0.0,0.0,0.0,0.0,0.0,0.0,0.0,0.0,0.0,0.0,16,0.0,3.4630434782608694,0.9592391304347826,0.0,28.317590691307323,0.43125,0.0,1.0,0.0,1.0,0.0,16.0,0.0,0.0,0.0,0.0,0.0,0.0,0.0,0.0,0.0,0.0,0.0,0.0,,3
00-0026163,2015,veteran,RB,1.4253302501834995,9.91313213442245,2.1188161022842324,14.129487105258438,54.851740611264916,0.3877217083079164,3.0200126851616123,2.2758761001915833,17.993671192674373,0.07223440321088674,0.1398177784197313,3.882075846252852,0.7535981922770608,7.906261325543894,0.07559573562287696,0.012157915024905019,0.0006384239060209517,0.0030371057119429417,0.0017915229323384558,1.3669623036804917e-11,0.1437215311030252,10.902580342763077,11.046301873866103,veteran,,,0.0,0.0,0.0,0.0,0.0,0.0,0.0,0.0,0.0,0.0,0.0,0.0,0.0,0.0,0.0,0.0,0.0,0.0,0.0,0.0,0.0,0.0,0.0,0.0,0.0,0.0,0.0,0.0,0.0,16,0.0,8.419444444444443,0.84375,0.0,28.202600958247775,0.3375,0.0,0.9375,0.0,1.0,0.0,16.0,0.0,0.0,0.0,0.0,0.0,0.0,0.0,0.0,0.0,0.0,0.0,0.0,,3
00-0026164,2015,veteran,RB,10.600547271835442,10.70740003211605,2.514734579480098,113.50430019889852,462.2765345035345,2.7965225080658973,26.657562785897998,19.79931754446067,156.74032258394337,0.820487631141049,0.9355569271309395,4.072766703054133,0.742727971926024,7.916450768162724,0.09030944483837673,0.014840860721271895,0.0010203406448529876,0.004153715595205655,0.002063438769276352,1.36695981703765e-11,1.2917857751614847,91.6322914619579,92.92407723711939,veteran,Chris Johnson,RB,11.0,108.2,13.0,6.0,58.0,0.0,196.0,814.0,3.0,0.0,0.0,0.0,0.0,0.0,0.0,2.0,0.0,4.0,0.0,4.0,0.0,0.0,0.0,4.0,0.0,0.0,0.0,0.0,0.0,16,104.4,9.639375,1.0,1.0,29.93839835728953,1.0,1.0,1.0,0.0,0.0,0.0,0.0,16.0,34.0,24.0,151.0,1.0,155.0,663.0,1.0,0.0,0.0,0.0,0.0,,3
