player_id,season,entry,position,proj_games,proj_tpg,proj_targets,proj_receptions,proj_rec_yards,proj_rec_tds,proj_carries,proj_rush_yards,proj_rush_tds,proj_fumbles_lost,proj_catch_rate,proj_ypr,proj_td_per_target,p_rec_100,p_rec_150,p_rec_200,proj_bonus_points,proj_points_base,proj_points,entry_act,name,position_act,games,points,targets,receptions,rec_yards,rec_tds,carries,rush_yards,rush_tds,attempts,completions,pass_yards,pass_tds,interceptions,sacks,fumbles_lost,rec_bonus,rush_bonus,pass_bonus,total_bonus,g100,g150,g200,r100,r150,r200,p300,p350,p400,season_len,pts_1,ppg_w,gshare_w,gshare_1,age,evidence,present_1,gshare_max3,inj_missed_share_1,unexp_missed_share_1,inj_out_wks_1,missed_wks_1,games_1,tgt_1,rec_1,recyds_1,rectd_1,carries_1,rushyds_1,rushtd_1,att_1,passyds_1,passtd_1,ints_1,average_pick,n_train_seasons
00-0006101,2014,veteran,TE,8.658297914172241,8.112929437685812,70.24416002814164,45.952249417728304,480.108756005119,4.323259259745183,0.014030012026516395,0.036988213524452314,0.0012754556387742178,0.11868724725165547,0.6541789295981137,10.447992472374896,0.06154617348991251,0.0882403755372525,0.007627989624101831,1.3672677693021666e-11,0.8630795696742654,96.70053292852893,97.5636124982032,veteran,,,0.0,0.0,0.0,0.0,0.0,0.0,0.0,0.0,0.0,0.0,0.0,0.0,0.0,0.0,0.0,0.0,0.0,0.0,0.0,0.0,0.0,0.0,0.0,0.0,0.0,0.0,0.0,0.0,0.0,16,178.4,11.2840625,1.0,1.0,38.510609171800134,1.0,1.0,1.0,0.0,0.0,0.0,0.0,16.0,121.0,83.0,859.0,8.0,0.0,0.0,0.0,0.0,0.0,0.0,0.0,,2
00-0021547,2014,veteran,TE,10.578772859737418,5.794516830577281,61.298877382602626,39.66495452069767,441.9673640596183,3.4745578552360463,0.0345138862808288,0.09099115474036683,0.003137626025529891,0.456905748232864,0.6470747298213176,11.142515336277373,0.05668224286636232,0.02450700924084281,0.0017707951681844205,1.3672886040858283e-11,0.287353344317662,83.99067417288843,84.2780275172061,veteran,Antonio Gates,TE,16.0,188.6,98.0,69.0,821.0,12.0,0.0,0.0,0.0,0.0,0.0,0.0,0.0,0.0,0.0,0.0,0.0,0.0,0.0,0.0,0.0,0.0,0.0,0.0,0.0,0.0,0.0,0.0,0.0,16,147.7,9.19639344262295,0.9575819672131147,1.0,34.20396988364134,0.953125,1.0,1.0,0.0,0.0,0.0,0.0,16.0,113.0,77.0,872.0,4.0,0.0,0.0,0.0,0.0,0.0,0.0,0.0,,2
00-0021756,2014,veteran,TE,1.7583047076599967,0.6797654147579184,1.195234728873298,0.7689180952625139,8.214787368373917,0.0681969126642775,0.022762442986687306,0.060010076964902896,0.002069312998789755,0.03342609773275555,0.643319740204791,10.683566193834121,0.05705733862717001,1.3574804298296584e-06,4.0689397495355196e-08,1.3674404077221327e-11,2.4942288566158288e-06,1.5666839506780315,1.566686444906888,veteran,,,0.0,0.0,0.0,0.0,0.0,0.0,0.0,0.0,0.0,0.0,0.0,0.0,0.0,0.0,0.0,0.0,0.0,0.0,0.0,0.0,0.0,0.0,0.0,0.0,0.0,0.0,0.0,0.0,0.0,16,0.0,2.135483870967742,0.6512096774193549,0.0,33.50581793292265,0.29062499999999997,0.0,0.6875,0.0,1.0,0.0,16.0,0.0,0.0,0.0,0.0,0.0,0.0,0.0,0.0,0.0,0.0,0.0,0.0,,2
00-0022127,2014,veteran,TE,11.502512262533287,6.30737314803652,72.55063697966325,47.24798232382709,510.1058781200552,3.932456252430317,0.018638811805532885,0.04913868566913215,0.001694437436866626,0.1576755074093572,0.6512414541180558,10.796352627799083,0.05420291834974003,0.032282658744976545,0.002408711492198888,1.367284223304115e-11,0.412891028609698,97.92904596687036,98.34193699548005,veteran,Jason Witten,TE,16.0,132.3,90.0,64.0,703.0,5.0,0.0,0.0,0.0,0.0,0.0,0.0,0.0,0.0,0.0,0.0,0.0,0.0,0.0,0.0,0.0,0.0,0.0,0.0,0.0,0.0,0.0,0.0,0.0,16,172.6,10.8878125,1.0,1.0,32.323066392881586,1.0,1.0,1.0,0.0,0.0,0.0,0.0,16.0,111.0,73.0,851.0,8.0,0.0,0.0,0.0,0.0,0.0,0.0,0.0,,2
00-0022165,2014,veteran,TE,5.949899835335943,4.4152194034080825,26.27011320130981,16.75277529500149,177.48265329307992,1.485634252011584,0.05504998321387852,0.1451317739274979,0.005004543928534411,0.11514033793027331,0.6377123374621092,10.594223952017982,0.05655225923950381,0.005081883899666716,0.00031379307078787034,1.367313213663255e-11,0.03303725635084637,34.85271825398165,34.885755510332494,veteran,,,0.0,0.0,0.0,0.0,0.0,0.0,0.0,0.0,0.0,0.0,0.0,0.0,0.0,0.0,0.0,0.0,0.0,0.0,0.0,0.0,0.0,0.0,0.0,0.0,0.0,0.0,0.0,0.0,0.0,16,67.8,5.985425101214575,0.8013663967611336,0.6875,35.22245037645448,0.7718750000000001,1.0,1.0,0.0,0.3125,0.0,5.0,11.0,52.0,31.0,343.0,3.0,0.0,0.0,0.0,0.0,0.0,0.0,0.0,,2
00-0022922,2014,veteran,TE,8.449922290794271,3.008569924245088,25.422182066291803,16.335341275929355,182.8355562502834,1.325959416959804,0.07087257239651414,0.18684587268171907,0.006442961126955831,0.1786135526993943,0.6425625162046565,11.192637678142507,0.052157576934276695,0.001136107946407501,6.131181709880615e-05,1.3673364183960559e-11,0.01037714422716343,34.10709801338296,34.11747515761012,veteran,,,0.0,0.0,0.0,0.0,0.0,0.0,0.0,0.0,0.0,0.0,0.0,0.0,0.0,0.0,0.0,0.0,0.0,0.0,0.0,0.0,0.0,0.0,0.0,0.0,0.0,0.0,0.0,0.0,0.0,16,66.3,6.053225806451612,0.7923387096774194,0.75,31.11567419575633,0.58125,1.0,1.0,0.0,0.25,0.0,4.0,12.0,47.0,31.0,388.0,2.0,0.0,0.0,0.0,0.0,0.0,0.0,0.0,,2
00-0022943,2014,veteran,TE,9.1608615677849,3.6381739480404187,33.32880789751973,21.279252665474004,232.48210711804376,1.8303976537730258,0.047729821672559326,0.1258331662276564,0.004339074697505394,0.13032292023635286,0.638464259835035,10.925294735338635,0.05491938563782957,0.002386860201387586,0.00013760207460862,1.3673249301863033e-11,0.02375652647247872,44.64819489151462,44.6719514179871,veteran,Benjamin Watson,TE,15.0,35.6,31.0,20.0,136.0,2.0,0.0,0.0,0.0,0.0,0.0,0.0,0.0,0.0,0.0,0.0,0.0,0.0,0.0,0.0,0.0,0.0,0.0,0.0,0.0,0.0,0.0,0.0,0.0,16,44.1,4.343252595155709,0.9080882352941178,0.875,33.70294318959617,0.903125,1.0,1.0,0.0625,0.0625,1.0,2.0,14.0,30.0,19.0,226.0,2.0,0.0,0.0,0.0,0.0,0.0,0.0,0.0,,2
00-0023465,2014,veteran,TE,9.904775923182273,4.980847757730949,49.33418094780991,32.235642179155306,350.8065352122194,2.5226690907039133,0.05890736505938551,0.15589388606942248,0.005339197413159205,0.3281386198123519,0.6534139527573598,10.882566981682876,0.05113430571336772,0.011353138970237205,0.0007567798276295242,1.3673006981282263e-11,0.12369389971958641,65.72583648848428,65.84953038820386,veteran,Heath Miller,TE,16.0,128.1,91.0,66.0,761.0,3.0,0.0,0.0,0.0,0.0,0.0,0.0,0.0,0.0,0.0,1.0,1.0,0.0,0.0,1.0,1.0,0.0,0.0,0.0,0.0,0.0,0.0,0.0,0.0,16,92.3,7.9297945205479445,0.9148116438356164,0.875,31.860369609856264,0.9125000000000001,1.0,1.0,0.125,0.0,2.0,2.0,14.0,78.0,58.0,593.0,1.0,0.0,0.0,0.0,0.0,0.0,0.0,0.0,,2
00-0023506,2014,veteran,TE,3.962322076272063,0.7034697530476849,2.787373732490498,1.7894704510319177,18.051135041278197,0.1624447397328712,0.07794275506971017,0.20548544518378134,0.007085705006337289,0.06612156771295305,0.6419915744248041,10.087417219361635,0.05827877971273268,1.2273806709473685e-06,3.64679532490916e-08,1.3674419643018788e-11,5.080132557747038e-06,3.605336807171502,3.6053418873040597,veteran,,,0.0,0.0,0.0,0.0,0.0,0.0,0.0,0.0,0.0,0.0,0.0,0.0,0.0,0.0,0.0,0.0,0.0,0.0,0.0,0.0,0.0,0.0,0.0,0.0,0.0,0.0,0.0,0.0,0.0,16,8.7,1.402325581395349,0.5414244186046512,0.5,32.27926078028747,0.5375,1.0,0.625,0.0,0.5,0.0,8.0,8.0,6.0,3.0,12.0,1.0,0.0,0.0,0.0,0.0,0.0,0.0,0.0,,2
00-0023630,2014,veteran,TE,4.469379841566566,2.4115955238720304,10.778336420405815,6.972627473908779,72.09075844958636,0.7106724578114149,0.038364319077019565,0.10114229574850613,0.003487665370638142,0.06947115176498489,0.6469112859298052,10.33910942744989,0.06593526404185641,0.00029308365723219323,1.4041891595761464e-05,1.3673573635618767e-11,0.0014040401326042972,14.851522247050225,14.852926287182829,veteran,,,0.0,0.0,0.0,0.0,0.0,0.0,0.0,0.0,0.0,0.0,0.0,0.0,0.0,0.0,0.0,0.0,0.0,0.0,0.0,0.0,0.0,0.0,0.0,0.0,0.0,0.0,0.0,0.0,0.0,16,14.2,4.215837104072398,0.8040158371040724,0.4375,32.101300479123886,0.690625,1.0,1.0,0.125,0.4375,2.0,9.0,7.0,9.0,7.0,47.0,1.0,0.0,0.0,0.0,0.0,0.0,0.0,0.0,,2
00-0024221,2014,veteran,TE,11.27259182489013,5.209307092638816,58.72239254582248,37.77191817285993,490.59979857942017,4.749518713473752,0.05399274080607078,0.14069046458910633,0.004879156046093511,0.36509144557491946,0.6432285289361397,12.988479863115039,0.08088087878516853,0.029604029109013236,0.002186138147447853,1.3672856041463623e-11,0.37067930133983074,95.75621231680014,96.12689161813998,veteran,Vernon Davis,TE,13.0,49.9,50.0,26.0,245.0,2.0,1.0,4.0,0.0,0.0,0.0,0.0,0.0,0.0,0.0,0.0,0.0,0.0,0.0,0.0,0.0,0.0,0.0,0.0,0.0,0.0,0.0,0.0,0.0,16,189.5,10.248867313915856,0.966626213592233,0.9375,30.584531143052704,0.9656250000000001,1.0,1.0,0.0,0.0625,0.0,1.0,15.0,84.0,52.0,850.0,13.0,0.0,0.0,0.0,0.0,0.0,0.0,0.0,,2
00-0024243,2014,veteran,TE,7.14369578677956,3.934446595749008,28.10648956936137,17.846445495545538,204.9244229471764,1.6170902964797185,0.06717051431371122,0.1770859013725114,0.006106410392155566,0.221639035751257,0.6349581811525759,11.48264639019156,0.05753441006885805,0.00423224630033959,0.0002569700801479227,1.367316053191819e-11,0.0329874543780248,38.7292758023564,38.76226325673442,veteran,Marcedes Lewis,TE,8.0,41.6,31.0,18.0,206.0,2.0,0.0,0.0,0.0,0.0,0.0,0.0,0.0,0.0,0.0,0.0,0.0,0.0,0.0,0.0,0.0,0.0,0.0,0.0,0.0,0.0,0.0,0.0,0.0,16,70.4,6.534285714285715,0.7971938775510204,0.625,30.286105407255306,0.765625,1.0,0.9375,0.3125,0.0625,5.0,6.0,10.0,47.0,25.0,359.0,4.0,0.0,0.0,0.0,0.0,0.0,0.0,0.0,,2
00-0024268,2014,veteran,TE,6.469842340423278,3.2588942821424984,21.08453220956886,13.53444076806407,138.62327141116305,1.3606349013539683,0.05698485507471873,0.15023279974244028,0.005180441370428976,0.09800140351572206,0.6419132581903663,10.242260746986988,0.06453237320278166,0.0010854722335570796,5.834369950370585e-05,1.3673371235500906e-11,0.007589046198969544,28.643460054437522,28.65104910063649,veteran,Anthony Fasano,TE,14.0,59.1,36.0,25.0,226.0,4.0,0.0,0.0,0.0,0.0,0.0,0.0,0.0,0.0,0.0,0.0,0.0,0.0,0.0,0.0,0.0,0.0,0.0,0.0,0.0,0.0,0.0,0.0,0.0,16,49.5,5.55,0.8078124999999999,0.5625,30.365503080082135,0.75,1.0,1.0,0.25,0.1875,4.0,7.0,9.0,33.0,23.0,200.0,3.0,0.0,0.0,0.0,0.0,0.0,0.0,0.0,,2
00-0024276,2014,veteran,TE,2.476392134846215,3.070130459776876,7.6028469235432485,4.824157673718533,54.822053714081726,0.4013360918320756,0.02710620599614471,0.07165344855230313,0.002456830054939247,0.04089100569985058,0.634519900536189,11.364067557896396,0.0527876065200371,0.0012633835560371038,6.882371987504457e-05,1.3673347759712244e-11,0.0033842849470695963,10.242425073045059,10.245809357992128,veteran,,,0.0,0.0,0.0,0.0,0.0,0.0,0.0,0.0,0.0,0.0,0.0,0.0,0.0,0.0,0.0,0.0,0.0,0.0,0.0,0.0,0.0,0.0,0.0,0.0,0.0,0.0,0.0,0.0,0.0,16,11.7,4.758100558659217,0.7685055865921788,0.25,31.54277891854894,0.559375,1.0,0.9375,0.125,0.625,2.0,12.0,4.0,12.0,7.0,82.0,0.0,0.0,0.0,0.0,0.0,0.0,0.0,0.0,,2
00-0024301,2014,veteran,TE,2.260775170583124,0.6579831801677465,1.4875520363845633,0.9557521688978354,10.168396934212824,0.09485314995852742,0.03766631606380696,0.09930210598640016,0.0034242105512551782,0.044419132662590996,0.6424999902663933,10.639156535672763,0.06376459286027013,1.1663648947254053e-06,3.450129700526139e-08,1.3674427521155897e-11,2.753950136881032e-06,2.0054718862023537,2.0054746401524906,veteran,,,0.0,0.0,0.0,0.0,0.0,0.0,0.0,0.0,0.0,0.0,0.0,0.0,0.0,0.0,0.0,0.0,0.0,0.0,0.0,0.0,0.0,0.0,0.0,0.0,0.0,0.0,0.0,0.0,0.0,16,0.0,3.212,0.5625,0.0,31.159479808350444,0.234375,0.0,0.625,0.0,1.0,0.0,16.0,0.0,0.0,0.0,0.0,0.0,0.0,0.0,0.0,0.0,0.0,0.0,0.0,,2
00-0024313,2014,veteran,TE,3.0028019070472562,5.09587007537749,15.301888380408572,9.75977812070274,108.67207317050635,0.8967780811805223,0.03039263253377267,0.08012603122540067,0.002762966593979334,0.04878153833304495,0.6378152733879859,11.13468685727474,0.058605713156860556,0.012557619081037625,0.000845505962222193,1.3672991215605439e-11,0.041516372980298304,21.054792190505466,21.096308563485763,veteran,Owen Daniels,TE,15.0,100.7,79.0,48.0,527.0,4.0,0.0,0.0,0.0,0.0,0.0,0.0,0.0,0.0,0.0,0.0,0.0,0.0,0.0,0.0,0.0,0.0,0.0,0.0,0.0,0.0,0.0,0.0,0.0,16,55.2,9.367894736842105,0.756578947368421,0.3125,31.811088295687885,0.59375,1.0,0.9375,0.0,0.6875,0.0,11.0,5.0,41.0,24.0,252.0,3.0,0.0,0.0,0.0,0.0,0.0,0.0,0.0,,2
00-0024369,2014,veteran,TE,3.1713833576554125,1.4887343181409982,4.72134724052284,3.036989409593965,32.07678432632549,0.2655492390107469,0.021259268201592588,0.05604716162238046,0.0019326607455993263,0.05811013279972153,0.6432463563636659,10.562033645884211,0.056244378030822426,3.576712114934757e-05,1.4260712419629987e-06,1.3673898643537373e-11,0.00012021526740002366,6.220448986530404,6.2205692017978045,veteran,,,0.0,0.0,0.0,0.0,0.0,0.0,0.0,0.0,0.0,0.0,0.0,0.0,0.0,0.0,0.0,0.0,0.0,0.0,0.0,0.0,0.0,0.0,0.0,0.0,0.0,0.0,0.0,0.0,0.0,16,0.0,2.6684210526315795,0.7960526315789475,0.0,31.531827515400412,0.35624999999999996,0.0,0.875,0.0,1.0,0.0,16.0,0.0,0.0,0.0,0.0,0.0,0.0,0.0,0.0,0.0,0.0,0.0,0.0,,2
00-0024389,2014,veteran,TE,11.346811018039507,4.06471912219473,46.12159972095503,29.709089938479508,318.89677630308506,2.898197908326651,0.07699420836546216,0.20231877529315284,0.00693704012662962,0.25039992990676285,0.6441469965965076,10.733979969209585,0.06283819134334741,0.003845532399510949,0.00023145519809544436,1.367317539507722e-11,0.04757394729919047,63.694464307983736,63.74203825528293,veteran,Delanie Walker,TE,15.0,148.0,106.0,63.0,890.0,4.0,0.0,0.0,0.0,0.0,0.0,0.0,0.0,0.0,0.0,0.0,3.5,0.0,0.0,3.5,2.0,1.0,0.0,0.0,0.0,0.0,0.0,0.0,0.0,16,123.1,6.209666666666666,0.94125,0.9375,30.053388090349078,0.9375,1.0,1.0,0.0,0.0625,0.0,1.0,15.0,86.0,60.0,571.0,6.0,0.0,0.0,0.0,0.0,0.0,0.0,0.0,,2
00-0025418,2014,veteran,TE,12.473845569528024,5.779702239037638,72.09511316761083,46.30266999909831,521.9817261552279,4.041825293279014,0.020212772197515418,0.05328821761163155,0.0018375247452286744,0.21968735937134118,0.6422442238415137,11.273253273847768,0.056062403063052935,0.024690695085696723,0.0017855689282232075,1.3672884858183155e-11,0.34139728444099826,99.17743862623588,99.51883591067688,veteran,Greg Olsen,TE,16.0,181.8,123.0,84.0,1008.0,6.0,0.0,0.0,0.0,0.0,0.0,0.0,0.0,0.0,0.0,0.0,3.0,0.0,0.0,3.0,3.0,0.0,0.0,0.0,0.0,0.0,0.0,0.0,0.0,16,154.1,9.104375000000001,1.0,1.0,29.475701574264203,1.0,1.0,1.0,0.0,0.0,0.0,0.0,16.0,111.0,73.0,816.0,6.0,0.0,0.0,0.0,0.0,0.0,0.0,0.0,,2
00-0025425,2014,veteran,TE,10.065017622813025,3.5783032160771513,36.01568492958505,23.085462124645332,252.74587845762352,2.2050804829056947,0.06443758386370615,0.16988090291340713,0.005857962169427832,0.22860483386474456,0.6409835650711672,10.948270261733239,0.06122556011962259,0.0022721418198239094,0.00013041178940274598,1.367325692911641e-11,0.024838043171143083,49.64272800109761,49.66756604426875,veteran,Zach Miller,TE,3.0,10.600000000000001,7.0,6.0,76.0,0.0,0.0,0.0,0.0,0.0,0.0,0.0,0.0,0.0,0.0,0.0,0.0,0.0,0.0,0.0,0.0,0.0,0.0,0.0,0.0,0.0,0.0,0.0,0.0,16,85.2,5.367625899280576,0.877248201438849,0.8125,28.722792607802873,0.8687499999999999,1.0,1.0,0.0,0.1875,0.0,3.0,13.0,56.0,33.0,387.0,5.0,0.0,0.0,0.0,0.0,0.0,0.0,0.0,,2
00-0025516,2014,veteran,TE,12.444369476147127,5.207145403977474,64.79964132311709,41.69000278165992,485.91429325592924,3.6433457432345593,0.03730238103193332,0.09834264090236966,0.0033911255483575747,0.5023836593327674,0.6433678015866907,11.655415227501267,0.0562247825580912,0.017899994731340067,0.0012498920656313682,1.3672935616519782e-11,0.2460853264032171,90.32191887454509,90.56800420094831,veteran,Scott Chandler,TE,16.0,92.2,70.0,47.0,497.0,3.0,0.0,0.0,0.0,0.0,0.0,0.0,0.0,0.0,0.0,0.0,1.0,0.0,0.0,1.0,1.0,0.0,0.0,0.0,0.0,0.0,0.0,0.0,0.0,16,102.0,6.731493506493506,0.9646915584415585,1.0,29.1088295687885,0.9625,1.0,1.0,0.0,0.0,0.0,0.0,16.0,81.0,53.0,655.0,2.0,0.0,0.0,0.0,0.0,0.0,0.0,0.0,,2
00-0025542,2014,veteran,TE,5.774760946909307,0.7927321370036026,4.577838586128363,2.9297770791206625,32.40516717753912,0.2780203877147697,0.09895621261029754,0.26088456051805714,0.008996019328208867,0.1483760362089285,0.6399913461340446,11.060625536487965,0.060731802243359834,2.8605348523150808e-06,9.150070997267743e-08,1.3674288915026974e-11,1.7311654973768354e-05,6.156840083206063,6.156857394861037,veteran,Dante Rosario,TE,14.0,19.6,22.0,16.0,116.0,0.0,0.0,0.0,0.0,0.0,0.0,0.0,0.0,0.0,0.0,1.0,0.0,0.0,0.0,0.0,0.0,0.0,0.0,0.0,0.0,0.0,0.0,0.0,0.0,16,1.8,1.29375,0.60546875,0.5625,29.8507871321013,0.6,1.0,0.6875,0.0,0.4375,0.0,7.0,9.0,4.0,1.0,13.0,0.0,0.0,0.0,0.0,0.0,0.0,0.0,0.0,,2
00-0025549,2014,veteran,TE,12.365351397620458,4.606174656333101,56.956968224372446,36.57111811974944,450.86605635334263,3.4195690413855715,0.02869947223316789,0.07566224497835171,0.00260904293028799,0.4465475317135607,0.6420833000746045,12.328473383750937,0.06003776443849243,0.013004434785486954,0.0008786668604551406,1.3672985744412138e-11,0.17710194292458536,83.01970436217486,83.19680630509944,veteran,Brent Celek,TE,16.0,55.0,51.0,32.0,340.0,1.0,0.0,0.0,0.0,0.0,0.0,0.0,0.0,0.0,0.0,1.0,1.0,0.0,0.0,1.0,1.0,0.0,0.0,0.0,0.0,0.0,0.0,0.0,0.0,16,100.2,6.867515923566879,0.9820859872611465,1.0,29.598904859685145,0.9812500000000001,1.0,1.0,0.0,0.0,0.0,0.0,16.0,51.0,32.0,502.0,6.0,0.0,0.0,0.0,0.0,0.0,0.0,0.0,,2
00-0026170,2014,veteran,TE,3.535382290663463,3.886220920201493,13.739276618886224,8.833217771199807,99.53395326732917,0.7807357603070624,0.029875050840352222,0.07876149767001948,0.002715913712759293,0.0868843822706857,0.6429172376555493,11.26814212504234,0.05682509945493425,0.0038770825835104665,0.0002335280307562525,1.3673174127877056e-11,0.014945385498326198,18.90482164167738,18.919767027175705,veteran,,,0.0,0.0,0.0,0.0,0.0,0.0,0.0,0.0,0.0,0.0,0.0,0.0,0.0,0.0,0.0,0.0,0.0,0.0,0.0,0.0,0.0,0.0,0.0,0.0,0.0,0.0,0.0,0.0,0.0,16,0.0,8.075,0.75,0.0,29.932922655715263,0.3,0.0,1.0,0.0,1.0,0.0,16.0,0.0,0.0,0.0,0.0,0.0,0.0,0.0,0.0,0.0,0.0,0.0,0.0,,2
00-0026178,2014,veteran,TE,9.164886469900345,2.504038822656488,22.949231525869635,14.778882096723484,157.69731411306643,1.1853006607114709,0.09944069741376772,0.2621618386362967,0.009040063401251611,0.30559512053840504,0.6439815677515788,10.670449434604281,0.051648817058442015,0.0003941852768196626,1.938222625095947e-05,1.3673527834175964e-11,0.003879117415477057,29.740242747131536,29.74412186454701,veteran,John Carlson,TE,16.0,59.5,55.0,33.0,350.0,1.0,0.0,0.0,0.0,0.0,0.0,0.0,0.0,0.0,0.0,0.0,0.0,0.0,0.0,0.0,0.0,0.0,0.0,0.0,0.0,0.0,0.0,0.0,0.0,16,54.4,3.290355329949239,0.7439720812182742,0.8125,30.305270362765228,0.615625,1.0,0.8125,0.125,0.0625,2.0,3.0,13.0,47.0,32.0,344.0,1.0,0.0,0.0,0.0,0.0,0.0,0.0,0.0,,2
00-0026188,2014,veteran,TE,4.345325232146974,2.740200563169578,11.907062648284116,7.627555157004905,88.21564942063294,0.6358069859044511,0.10632599851497256,0.27927629431015655,0.009608349766399113,0.0964494291207203,0.6405908310312018,11.565389906045908,0.053397467090347,0.0008453665816139004,4.444725178701928e-05,1.3673409895280953e-11,0.0039630995033661295,16.342863305780423,16.34682640528379,veteran,,,0.0,0.0,0.0,0.0,0.0,0.0,0.0,0.0,0.0,0.0,0.0,0.0,0.0,0.0,0.0,0.0,0.0,0.0,0.0,0.0,0.0,0.0,0.0,0.0,0.0,0.0,0.0,0.0,0.0,16,16.5,5.338064516129031,0.5100806451612903,0.4375,28.62696783025325,0.48437500000000006,1.0,0.75,0.0,0.5625,0.0,9.0,7.0,18.0,7.0,70.0,1.0,0.0,0.0,0.0,0.0,0.0,0.0,0.0,,2
00-0026201,2014,veteran,TE,12.918952603031576,5.275132671479359,68.14918895754518,43.989016305682746,491.51335013978183,3.8161082415945358,0.0350960550338751,0.09252596327112525,0.003190550457625009,0.36767461412908803,0.6454811418678296,11.17354720378881,0.05599638528305674,0.015859577386641347,0.0010934923603533524,1.3672954634044619e-11,0.2260792928781846,93.33553928720146,93.56161858007964,veteran,Martellus Bennett,TE,16.0,178.6,128.0,90.0,916.0,6.0,0.0,0.0,0.0,0.0,0.0,0.0,0.0,0.0,0.0,0.0,2.0,0.0,0.0,2.0,2.0,0.0,0.0,0.0,0.0,0.0,0.0,0.0,0.0,16,136.4,7.434090909090909,0.9707792207792207,1.0,27.479808350444902,0.9625000000000001,1.0,1.0,0.0,0.0,0.0,0.0,16.0,94.0,65.0,759.0,5.0,0.0,0.0,0.0,0.0,0.0,0.0,0.0,,2
00-0026225,2014,veteran,TE,4.094795830385173,1.5521427397551597,6.355707618912046,4.0786910435224915,45.414148176918374,0.35418929709485797,0.050609848671007755,0.13342596467811135,0.004600895333727978,0.06632693941953505,0.6417367330406982,11.13449086785873,0.05572775186211086,5.3862766898537506e-05,2.225662046519096e-06,1.367383538849362e-11,0.00023422759279416753,8.61419021165334,8.614424439246134,veteran,Craig Stevens,TE,1.0,3.6,2.0,2.0,26.0,0.0,0.0,0.0,0.0,0.0,0.0,0.0,0.0,0.0,0.0,0.0,0.0,0.0,0.0,0.0,0.0,0.0,0.0,0.0,0.0,0.0,0.0,0.0,0.0,16,1.5,1.9156249999999997,0.7089843749999999,0.375,29.998631074606433,0.6000000000000001,1.0,0.9375,0.0625,0.5625,1.0,10.0,6.0,6.0,2.0,5.0,0.0,0.0,0.0,0.0,0.0,0.0,0.0,0.0,,2
00-0026231,2014,veteran,TE,5.237632410991928,4.750059059262125,24.879063282917134,16.10375141679538,183.39952490131205,1.4592894014098776,0.04385594291453665,0.1156202131383239,0.003986903901321514,0.1309428187586025,0.6472812594939135,11.388621207232237,0.05865531932674807,0.010762696663331637,0.000713655910936685,1.3673015324339992e-11,0.06197785001089584,34.921162414192715,34.98314026420361,veteran,,,0.0,0.0,0.0,0.0,0.0,0.0,0.0,0.0,0.0,0.0,0.0,0.0,0.0,0.0,0.0,0.0,0.0,0.0,0.0,0.0,0.0,0.0,0.0,0.0,0.0,0.0,0.0,0.0,0.0,16,60.5,8.406190476190476,0.8035714285714286,0.375,27.43600273785079,0.65625,1.0,1.0,0.125,0.5,2.0,10.0,6.0,34.0,25.0,300.0,3.0,0.0,0.0,0.0,0.0,0.0,0.0,0.0,,2
00-0026267,2014,veteran,TE,8.918148990128582,3.270552826767767,29.167277389201143,18.820965776903876,198.1425599279282,1.5139253062612805,0.07582441228512533,0.19990072329714859,0.006893128389556849,0.13141624875944438,0.6452767437207604,10.52775730409534,0.05190492366016289,0.0012847492600331805,7.009159826196557e-05,1.3673345165595266e-11,0.01239521653419988,38.10680706396061,38.11920228049481,veteran,Jacob Tamme,TE,13.0,27.9,28.0,14.0,109.0,2.0,0.0,0.0,0.0,0.0,0.0,0.0,0.0,0.0,0.0,1.0,0.0,0.0,0.0,0.0,0.0,0.0,0.0,0.0,0.0,0.0,0.0,0.0,0.0,16,34.4,3.9808429118773945,0.8239942528735631,0.75,29.464750171115675,0.815625,1.0,0.9375,0.0,0.25,0.0,4.0,12.0,25.0,20.0,184.0,1.0,0.0,0.0,0.0,0.0,0.0,0.0,0.0,,2
00-0026281,2014,veteran,TE,10.514673863382233,1.6710005303689406,17.57002560236815,11.342193386053108,123.46055137496184,1.105917279250904,0.09230683949352972,0.2433543950283965,0.008391530863048157,0.1664397720589668,0.6455422230303618,10.885068449527118,0.06294340738478175,6.951044641630802e-05,2.9368817658464252e-06,1.3673795983948507e-11,0.0007772004926313795,24.394460586591354,24.395237787083985,veteran,Gary Barnidge,TE,10.0,22.1,25.0,13.0,156.0,0.0,0.0,0.0,0.0,0.0,0.0,0.0,0.0,0.0,0.0,0.0,0.0,0.0,0.0,0.0,0.0,0.0,0.0,0.0,0.0,0.0,0.0,0.0,0.0,16,31.200000000000003,2.134615384615385,0.7938701923076924,0.875,28.941820670773442,0.65,1.0,0.875,0.0,0.125,0.0,2.0,14.0,18.0,13.0,127.0,2.0,0.0,0.0,0.0,0.0,0.0,0.0,0.0,,2
00-0026298,2014,veteran,TE,4.621126528241353,1.9500824899401485,9.011577926521372,5.735281825654882,63.763413724234184,0.5641427646822431,0.048646333111137856,0.12824942365663616,0.004422393919194351,0.1171083157961688,0.636434803362878,11.117747246353211,0.06260199593036335,0.00014388940744747378,6.478181862804249e-06,1.3673683567198954e-11,0.0007098360313555588,12.43398154763281,12.434691383664164,veteran,Kellen Davis,TE,2.0,0.0,3.0,0.0,0.0,0.0,0.0,0.0,0.0,0.0,0.0,0.0,0.0,0.0,0.0,0.0,0.0,0.0,0.0,0.0,0.0,0.0,0.0,0.0,0.0,0.0,0.0,0.0,0.0,16,10.7,2.7407960199004977,0.7527985074626865,0.375,28.889801505817932,0.628125,1.0,0.9375,0.0,0.625,0.0,10.0,6.0,4.0,3.0,32.0,1.0,0.0,0.0,0.0,0.0,0.0,0.0,0.0,,2
00-0026931,2014,veteran,TE,8.642357394786572,1.6869363046950139,14.579106447414887,9.34840096677562,97.11852256538302,0.7951180250215741,0.16260242326744564,0.4275532830848526,0.014621205221423045,0.13527170567186067,0.6412190623955039,10.38878444672452,0.05453818640322511,5.7118502793188856e-05,2.3723103141077e-06,1.3673826320856052e-11,0.0005243922817208269,19.01670003834886,19.01722443063058,veteran,Bear Pascoe,TE,2.0,7.3,2.0,2.0,3.0,1.0,0.0,0.0,0.0,0.0,0.0,0.0,0.0,0.0,0.0,0.0,0.0,0.0,0.0,0.0,0.0,0.0,0.0,0.0,0.0,0.0,0.0,0.0,0.0,16,14.3,1.3199074074074073,0.6857638888888888,0.75,28.520191649555098,0.675,1.0,0.75,0.0,0.25,0.0,4.0,12.0,20.0,12.0,81.0,0.0,1.0,2.0,0.0,0.0,0.0,0.0,0.0,,2
00-0026996,2014,veteran,TE,10.548892218961829,5.301984379607842,55.93006176710232,35.817886864383645,366.8413765610241,2.740348919854925,0.06711724457951179,0.17694546298234926,0.006101567689046527,0.4860504814173055,0.6404049223748842,10.24184865930216,0.048995993089833836,0.010421425450818669,0.0006888465614410675,1.3673020355534392e-11,0.12083434633516868,70.11737759702167,70.23821194335684,veteran,Brandon Pettigrew,TE,9.0,12.0,15.0,10.0,70.0,0.0,0.0,0.0,0.0,0.0,0.0,0.0,0.0,0.0,0.0,0.0,0.0,0.0,0.0,0.0,0.0,0.0,0.0,0.0,0.0,0.0,0.0,0.0,0.0,16,72.1,6.599642857142856,0.8790178571428571,0.875,29.519507186858316,0.8750000000000001,1.0,1.0,0.0625,0.0625,1.0,2.0,14.0,63.0,41.0,416.0,2.0,0.0,0.0,0.0,0.0,0.0,0.0,0.0,,2
00-0027061,2014,veteran,TE,12.860864505626033,5.407265103588974,69.5421038432577,44.292322806701634,535.8870552839153,3.967613546936191,0.04471480862570173,0.1178844954677591,0.004064982602336521,0.57488952264872,0.6369137595625948,12.098869992043701,0.05705340114355574,0.024207688134008407,0.001746753123024221,1.3672887986701582e-11,0.34502893029761394,98.42694751322286,98.77197644352047,veteran,Jared Cook,TE,16.0,107.4,99.0,52.0,634.0,3.0,1.0,0.0,0.0,0.0,0.0,0.0,0.0,0.0,0.0,0.0,0.0,0.0,0.0,0.0,0.0,0.0,0.0,0.0,0.0,0.0,0.0,0.0,0.0,16,121.6,7.513576158940396,0.9515728476821191,1.0,27.4031485284052,0.9437500000000001,1.0,1.0,0.0,0.0,0.0,0.0,16.0,86.0,51.0,671.0,5.0,0.0,0.0,0.0,0.0,0.0,0.0,0.0,,2
00-0027109,2014,veteran,TE,8.789992181135434,2.419877238352147,21.27070200442298,13.737894249648146,149.54187437122832,1.227774210072506,0.10324204771023308,0.2768159381754055,0.009301923390416533,0.13053777456577037,0.6458599366768206,10.885356347466306,0.057721377029174,0.0003741886711886277,1.8315267670987775e-05,1.3673535880268531e-11,0.00353060232383312,29.01219740741044,29.015728009734275,veteran,James Casey,TE,9.0,19.4,3.0,3.0,59.0,2.0,0.0,0.0,0.0,0.0,0.0,0.0,0.0,0.0,0.0,0.0,0.0,0.0,0.0,0.0,0.0,0.0,0.0,0.0,0.0,0.0,0.0,0.0,0.0,16,4.6,2.3196078431372547,0.824264705882353,0.75,29.94113620807666,0.796875,1.0,1.0,0.0,0.25,0.0,4.0,12.0,6.0,3.0,31.0,0.0,0.0,0.0,0.0,0.0,0.0,0.0,0.0,,2
00-0027135,2014,veteran,TE,11.769690175927105,5.125398908207683,60.32435717763948,39.02902565388566,418.09156022877045,3.233514322182405,0.03447658911872327,0.09089282585845225,0.003134235374429388,0.16344083184938168,0.6469861840210808,10.712323795537694,0.05360213475065387,0.011511091217358209,0.0007683582605176749,1.3673004822099966e-11,0.1490469855426067,80.42576781404799,80.5748147995906,veteran,Brandon Myers,TE,11.0,30.0,32.0,22.0,190.0,0.0,0.0,0.0,0.0,0.0,0.0,0.0,0.0,0.0,0.0,0.0,0.0,0.0,0.0,0.0,0.0,0.0,0.0,0.0,0.0,0.0,0.0,0.0,0.0,16,99.7,6.59093851132686,0.966626213592233,0.9375,28.99110198494182,0.9656250000000001,1.0,1.0,0.0,0.0625,0.0,1.0,15.0,75.0,47.0,522.0,4.0,0.0,0.0,0.0,0.0,0.0,0.0,0.0,,2
00-0027215,2014,veteran,TE,11.802321782670294,3.6431296395406636,42.99738830184255,27.469208641793728,296.73362765814403,2.4069508642376403,0.0777683494555565,0.20502564856464894,0.007069849950505136,0.5305100636975979,0.6388576080239878,10.802409036519206,0.05597900149983054,0.002285112129149678,0.0001312230999982177,1.367325604772926e-11,0.02929273485770741,56.851573809301414,56.88086654415912,veteran,Logan Paulsen,TE,15.0,18.299999999999997,16.0,13.0,78.0,1.0,0.0,0.0,0.0,0.0,0.0,0.0,0.0,0.0,0.0,1.0,0.0,0.0,0.0,0.0,0.0,0.0,0.0,0.0,0.0,0.0,0.0,0.0,0.0,16,54.7,3.4615942028985507,0.8722826086956521,0.9375,27.512662559890487,0.8625,1.0,0.9375,0.0,0.0625,0.0,1.0,15.0,50.0,28.0,267.0,3.0,0.0,0.0,0.0,0.0,0.0,0.0,0.0,,2
00-0027321,2014,veteran,TE,10.231086738796067,3.7602814405047087,38.4717655800887,24.6407896962688,299.0215173067499,2.433315784233915,0.08779054290255082,0.23144779492490672,0.007980958445686439,0.15580818263320736,0.6404902224976593,12.135224600858828,0.06324939205528152,0.004618755704253759,0.0002826952192591863,1.3673146970866565e-11,0.05159330947863718,56.58185544911308,56.63344875859172,veteran,Jeff Cumberland,TE,16.0,54.2,47.0,23.0,247.0,3.0,0.0,0.0,0.0,0.0,0.0,0.0,0.0,0.0,0.0,0.0,0.0,0.0,0.0,0.0,0.0,0.0,0.0,0.0,0.0,0.0,0.0,0.0,0.0,16,76.8,5.375847457627118,0.8109110169491525,0.8125,27.3347022587269,0.7375,1.0,0.875,0.0,0.1875,0.0,3.0,13.0,39.0,26.0,398.0,4.0,0.0,0.0,0.0,0.0,0.0,0.0,0.0,,2
00-0027656,2014,veteran,TE,5.7984994289018505,8.013285123594596,46.46502921279096,29.918702403163486,390.00670933288956,3.4413574598431986,0.0919731098148348,0.24229950239082648,0.008611277298896434,0.14921655555081453,0.6438972041994848,13.03554893783267,0.07406338741514999,0.1959912020091161,0.020553695955420347,1.367253498725147e-11,1.315225764467198,74.38563139686073,75.70085716132793,veteran,Rob Gronkowski,TE,15.0,228.4,131.0,82.0,1124.0,12.0,0.0,0.0,0.0,0.0,0.0,0.0,0.0,0.0,0.0,0.0,3.0,0.0,0.0,3.0,3.0,0.0,0.0,0.0,0.0,0.0,0.0,0.0,0.0,16,105.7,16.130366492146596,0.6652486910994764,0.4375,25.300479123887747,0.596875,1.0,1.0,0.125,0.4375,2.0,9.0,7.0,66.0,39.0,592.0,4.0,0.0,0.0,0.0,0.0,0.0,0.0,0.0,,2
00-0027675,2014,veteran,TE,11.106812332379354,3.885293259909449,43.15322309407265,27.578703383253824,296.9125888808784,2.2012955198594155,0.0821170388969792,0.21649037527385426,0.007465185354270837,0.16220803269870784,0.6390879152440857,10.766009726953584,0.05101114962051992,0.00304310915096226,0.00017931111943076804,1.3673211674735769e-11,0.036786604979355285,56.43040778312683,56.467194388106186,veteran,Ed Dickson,TE,13.0,22.5,17.0,10.0,115.0,1.0,0.0,0.0,0.0,0.0,0.0,0.0,0.0,0.0,0.0,0.0,0.0,0.0,0.0,0.0,0.0,0.0,0.0,0.0,0.0,0.0,0.0,0.0,0.0,16,45.8,3.8477611940298506,0.8512126865671643,0.875,27.104722792607802,0.8375,1.0,1.0,0.0,0.125,0.0,2.0,14.0,43.0,25.0,273.0,1.0,0.0,0.0,0.0,0.0,0.0,0.0,0.0,,2
00-0027695,2014,veteran,TE,4.948831306701386,3.0569650889746387,15.128404535810882,9.696212211418016,111.70570736001822,0.8215615473369091,0.012027885379829299,0.03170987963773179,0.0010934441254390273,0.09562702361176899,0.6409276132500181,11.520551007379602,0.05430589494035323,0.0013827879343630168,7.593325348250402e-05,1.3673333789523604e-11,0.007406855648519547,20.766523731225156,20.773930586873675,veteran,Tony Moeaki,TE,6.0,23.4,13.0,8.0,134.0,1.0,0.0,0.0,0.0,0.0,0.0,0.0,0.0,0.0,0.0,0.0,0.0,0.0,0.0,0.0,0.0,0.0,0.0,0.0,0.0,0.0,0.0,0.0,0.0,16,0.0,4.8428571428571425,0.875,0.0,27.23340177960301,0.2625,0.0,0.875,0.0,1.0,0.0,16.0,0.0,0.0,0.0,0.0,0.0,0.0,0.0,0.0,0.0,0.0,0.0,0.0,,2
00-0027696,2014,veteran,TE,12.882956189354923,8.875188836409603,114.33866895171681,72.9410012089228,905.3910361440455,8.695540726336612,0.02990081167516681,0.07882941259816705,0.0027182556068333463,0.22856191102846057,0.6379381698043423,12.412648868785887,0.07605074299062012,0.23127499464327392,0.02570112779181906,1.3672502482254231e-11,3.4761653790734024,178.7499172297295,182.2260826088029,veteran,Jimmy Graham,TE,15.0,188.4,124.0,85.0,889.0,10.0,0.0,0.0,0.0,0.0,0.0,0.0,0.0,0.0,0.0,2.0,1.0,0.0,0.0,1.0,1.0,0.0,0.0,0.0,0.0,0.0,0.0,0.0,0.0,16,268.0,15.521337579617834,0.9820859872611465,1.0,27.770020533880903,0.9812500000000001,1.0,1.0,0.0,0.0,0.0,0.0,16.0,143.0,86.0,1215.0,16.0,0.0,0.0,0.0,0.0,0.0,0.0,0.0,,2
00-0027713,2014,veteran,TE,4.679639638859198,6.582673063723572,30.80453779865155,19.811707672282292,211.97325790080336,1.819382350743526,0.1372098940996928,0.3764689597259402,0.012217068301993842,0.1137533052297371,0.6431425071779372,10.699393581168474,0.05906215385004636,0.035583954913272584,0.002686887471364946,1.3672826663823714e-11,0.18538058372172705,41.90291642600773,42.08829700972945,veteran,,,0.0,0.0,0.0,0.0,0.0,0.0,0.0,0.0,0.0,0.0,0.0,0.0,0.0,0.0,0.0,0.0,0.0,0.0,0.0,0.0,0.0,0.0,0.0,0.0,0.0,0.0,0.0,0.0,0.0,16,0.0,11.370588235294118,0.7279411764705883,0.0,24.8186173853525,0.31875,0.0,0.875,0.0,1.0,0.0,16.0,0.0,0.0,0.0,0.0,0.0,0.0,0.0,0.0,0.0,0.0,0.0,0.0,,2
00-0027714,2014,veteran,TE,3.420824455829343,4.974760801565761,17.01778341189734,10.940290715255978,114.85135658378724,0.9874598947617177,0.02639735891790813,0.06959303714721234,0.002399759901628012,0.055983347802006714,0.642874013051987,10.498016878439046,0.05802517700815092,0.008840780847548812,0.0005751118899192341,1.367304601337401e-11,0.03319379465227974,22.789431552097493,22.822625346749774,veteran,Dennis Pitta,TE,3.0,20.5,21.0,16.0,125.0,0.0,0.0,0.0,0.0,0.0,0.0,0.0,0.0,0.0,0.0,0.0,0.0,0.0,0.0,0.0,0.0,0.0,0.0,0.0,0.0,0.0,0.0,0.0,0.0,16,32.900000000000006,7.782702702702704,0.8064189189189189,0.25,29.17453798767967,0.578125,1.0,1.0,0.0,0.75,0.0,12.0,4.0,33.0,20.0,169.0,1.0,0.0,0.0,0.0,0.0,0.0,0.0,0.0,,2
00-0027718,2014,veteran,TE,9.215136420169518,4.872547564065211,44.9011905166256,28.555854835538156,309.3699177956524,2.6436527358729585,0.08933388566272571,0.23551660765627686,0.008121262332975065,0.2957324089336883,0.6359709955789425,10.833852447332001,0.058877118968462344,0.008838015407878111,0.0005749146765994187,1.3673046062136816e-11,0.08939039368138682,60.55765002946817,60.647040423149555,veteran,Garrett Graham,TE,10.0,34.7,28.0,18.0,197.0,1.0,0.0,0.0,0.0,0.0,0.0,0.0,0.0,0.0,0.0,0.0,0.0,0.0,0.0,0.0,0.0,0.0,0.0,0.0,0.0,0.0,0.0,0.0,0.0,16,108.0,6.966216216216216,0.7804054054054053,0.75,28.076659822039698,0.6937500000000001,1.0,0.875,0.0,0.25,0.0,4.0,12.0,89.0,49.0,545.0,5.0,0.0,0.0,0.0,0.0,0.0,0.0,0.0,,2
00-0027725,2014,veteran,TE,10.993221778002912,3.388382588467873,37.2492412637509,24.003960801068214,259.9438521663282,2.1528542784764593,0.09178433942547454,0.2419768948489783,0.008344030856861322,0.4262872961483531,0.644414758171938,10.829206659709273,0.057795922962100954,0.001716660481478926,9.609501461407325e-05,1.367330032495914e-11,0.020456220402177747,50.135178570355045,50.155634790757226,veteran,Clay Harbor,TE,10.0,47.9,35.0,26.0,289.0,1.0,0.0,0.0,0.0,0.0,0.0,0.0,0.0,0.0,0.0,0.0,0.0,0.0,0.0,0.0,0.0,0.0,0.0,0.0,0.0,0.0,0.0,0.0,0.0,16,51.2,3.4206106870229016,0.8277671755725192,0.875,27.16769336071184,0.81875,1.0,0.875,0.0,0.125,0.0,2.0,14.0,35.0,24.0,292.0,2.0,0.0,0.0,0.0,0.0,0.0,0.0,0.0,,2
00-0027732,2014,veteran,TE,7.284426946626486,1.9328385203498786,14.079621001114322,9.044124883948268,102.88877441341597,0.7971817092674658,0.138303819411314,0.36461916026619146,0.012573074491937637,0.12137517931228542,0.6423557056850093,11.376310669485056,0.056619543182616444,0.00015998448227899794,7.269843299204367e-06,1.3673667183454026e-11,0.001244830436604594,19.463180143274204,19.46442497371081,veteran,Michael Hoomanawanui,TE,7.0,5.9,6.0,3.0,44.0,0.0,0.0,0.0,0.0,0.0,0.0,0.0,0.0,0.0,0.0,0.0,0.0,0.0,0.0,0.0,0.0,0.0,0.0,0.0,0.0,0.0,0.0,0.0,0.0,16,25.6,2.2971098265895953,0.5567196531791907,0.625,26.16016427104723,0.540625,1.0,0.625,0.125,0.25,2.0,6.0,10.0,19.0,12.0,136.0,1.0,0.0,0.0,0.0,0.0,0.0,0.0,0.0,,2
00-0027753,2014,veteran,TE,10.565717698954485,3.4140840520319347,36.07224829427206,23.110086551687765,245.0211608487154,1.9789094913486085,0.09571657675624684,0.252343702357378,0.008701506977840622,0.1801589093573651,0.6406611077623746,10.6023471742827,0.0548596105018173,0.0015679746030445474,8.706789221577896e-05,1.3673314344124903e-11,0.017946679458528042,47.647741902195115,47.66568858165364,veteran,Andrew Quarless,TE,16.0,64.8,46.0,29.0,323.0,3.0,0.0,0.0,0.0,0.0,0.0,0.0,0.0,0.0,0.0,0.0,0.0,0.0,0.0,0.0,0.0,0.0,0.0,0.0,0.0,0.0,0.0,0.0,0.0,16,59.2,4.218354430379747,0.7650316455696202,0.8125,25.90280629705681,0.49375,1.0,0.8125,0.0,0.1875,0.0,3.0,13.0,53.0,32.0,312.0,2.0,0.0,0.0,0.0,0.0,0.0,0.0,0.0,,2
00-0027783,2014,veteran,TE,4.786422537611559,2.2744387272450584,10.886424784502296,6.988750783292673,80.96205280037988,0.6498622495126735,0.02353504455403886,0.062046935642466085,0.002139549504912624,0.08681204042252141,0.641969326168654,11.58462439294988,0.05969473563421894,0.0003644149783770284,1.7795578659050098e-05,1.3673539970704909e-11,0.0018720099345869924,15.335172078509046,15.337044088443633,veteran,,,0.0,0.0,0.0,0.0,0.0,0.0,0.0,0.0,0.0,0.0,0.0,0.0,0.0,0.0,0.0,0.0,0.0,0.0,0.0,0.0,0.0,0.0,0.0,0.0,0.0,0.0,0.0,0.0,0.0,16,0.0,3.3825,0.8375,0.0,26.677618069815196,0.375,0.0,0.875,0.0,1.0,0.0,16.0,0.0,0.0,0.0,0.0,0.0,0.0,0.0,0.0,0.0,0.0,0.0,0.0,,2
00-0027819,2014,veteran,TE,1.3741840551646012,0.8549332826433119,1.1748356852379704,0.7530183356173414,8.491018877350344,0.06545048922584357,0.048329119067791186,0.12434725086735503,0.00436735216589474,0.04326314208881506,0.6409563014463702,11.275978918082007,0.05571033468615329,4.269246666231754e-06,1.414145475941262e-07,1.3674227048416807e-11,6.158262702818105e-06,1.5704265448032402,1.570432703065943,veteran,,,0.0,0.0,0.0,0.0,0.0,0.0,0.0,0.0,0.0,0.0,0.0,0.0,0.0,0.0,0.0,0.0,0.0,0.0,0.0,0.0,0.0,0.0,0.0,0.0,0.0,0.0,0.0,0.0,0.0,16,4.4,1.7173333333333336,0.3275,0.1875,26.420260095824776,0.234375,1.0,0.4375,0.0,0.8125,0.0,13.0,3.0,5.0,2.0,34.0,0.0,0.0,0.0,0.0,0.0,0.0,0.0,0.0,,2
00-0027825,2014,veteran,TE,11.776461930717565,2.4812578572955775,29.220438696735204,18.951811846253097,194.2076323279392,1.7070543865324244,0.08272965715520575,0.21810545977281515,0.007520877923200523,0.3939089709640128,0.6485806747443043,10.247444091543963,0.05841987535673629,0.0003243801643370891,1.567995379396067e-05,1.3673557956263811e-11,0.004097032546842889,38.41811334670348,38.42221037925032,veteran,Jim Dray,TE,13.0,38.7,27.0,17.0,242.0,1.0,0.0,0.0,0.0,0.0,0.0,0.0,0.0,0.0,0.0,0.0,0.0,0.0,0.0,0.0,0.0,0.0,0.0,0.0,0.0,0.0,0.0,0.0,0.0,16,44.5,2.641025641025641,0.8259615384615384,0.9375,27.668720054757017,0.609375,1.0,0.9375,0.0,0.0625,0.0,1.0,15.0,32.0,26.0,215.0,2.0,0.0,0.0,0.0,0.0,0.0,0.0,0.0,,2
00-0027873,2014,veteran,TE,11.562418938677013,5.658598630945061,65.427087976811,42.289073120914395,453.25442661856783,3.8287302714752216,0.05669887572247085,0.14947885417742315,0.00515444324749735,0.8213969141915228,0.6463542002037858,10.718003332033478,0.05851903836576404,0.01823052293148431,0.0012754384250570478,1.3672932737921436e-11,0.23290967402265805,87.845441567685,88.07835124170767,veteran,Jermaine Gresham,TE,15.0,107.0,79.0,62.0,460.0,5.0,0.0,0.0,0.0,0.0,0.0,0.0,0.0,0.0,0.0,0.0,0.0,0.0,0.0,0.0,0.0,0.0,0.0,0.0,0.0,0.0,0.0,0.0,0.0,16,86.8,7.286986301369863,0.9160958904109591,0.875,26.209445585215605,0.9125,1.0,1.0,0.0,0.125,0.0,2.0,14.0,67.0,46.0,458.0,4.0,0.0,0.0,0.0,0.0,0.0,0.0,0.0,,2
00-0027981,2014,veteran,TE,7.080873278976039,5.503991526580317,38.97306652827311,24.92173624311014,259.16883900798064,2.5360132202079333,0.06869177567560611,0.1810964995084161,0.006244706879600556,0.10930855162668295,0.6394604906193513,10.399309120351935,0.06507091810104745,0.013237992628775555,0.0008960520247986542,1.3672982957925168e-11,0.10325379472446566,53.430792131575814,53.53404592630028,veteran,Kyle Rudolph,TE,9.0,47.1,34.0,24.0,231.0,2.0,0.0,0.0,0.0,0.0,0.0,0.0,0.0,0.0,0.0,0.0,0.0,0.0,0.0,0.0,0.0,0.0,0.0,0.0,0.0,0.0,0.0,0.0,0.0,16,64.3,7.370796460176992,0.7820796460176992,0.5,24.810403832991103,0.7062499999999999,1.0,1.0,0.3125,0.1875,5.0,8.0,8.0,46.0,30.0,313.0,3.0,0.0,0.0,0.0,0.0,0.0,0.0,0.0,,2
00-0027985,2014,veteran,TE,11.514375839448624,4.6776423449643145,53.86013200243891,34.62532155935884,366.05537835175124,3.228800910844736,0.06356502829527096,0.16555829358224478,0.005761354871319764,0.20917604568056886,0.6428747994488934,10.571898306394516,0.059947883356441245,0.006847562314673402,0.0004347449448771969,1.3673085792431453e-11,0.08635413142449304,72.92377594714797,73.01013007857247,veteran,Lance Kendricks,TE,16.0,69.4,38.0,27.0,259.0,5.0,0.0,0.0,0.0,0.0,0.0,0.0,0.0,0.0,0.0,0.0,0.0,0.0,0.0,0.0,0.0,0.0,0.0,0.0,0.0,0.0,0.0,0.0,0.0,16,65.8,4.9572881355932195,0.9252118644067797,0.875,26.587268993839835,0.921875,1.0,1.0,0.0625,0.0625,1.0,2.0,14.0,46.0,32.0,258.0,4.0,0.0,0.0,0.0,0.0,0.0,0.0,0.0,,2
00-0028007,2014,veteran,TE,10.45951834808882,4.557955540969824,47.67401961054698,30.721482777706157,332.3482022116267,2.146619391148404,0.08590409971265389,0.22647444469699662,0.007809463610241263,0.19887360795495754,0.6444072270111163,10.818104211193992,0.04502702748130567,0.00683098968378706,0.00043359376545570324,1.3673086169355875e-11,0.07825163513730526,61.147034967127404,61.22528660226471,veteran,Rob Housler,TE,12.0,17.5,17.0,9.0,129.0,0.0,1.0,1.0,0.0,0.0,0.0,0.0,0.0,0.0,0.0,0.0,0.0,0.0,0.0,0.0,0.0,0.0,0.0,0.0,0.0,0.0,0.0,0.0,0.0,16,70.9,4.680769230769231,0.8298076923076922,0.8125,26.458590006844627,0.8125,1.0,0.9375,0.1875,0.0,3.0,3.0,13.0,57.0,39.0,454.0,1.0,0.0,0.0,0.0,0.0,0.0,0.0,0.0,,2
00-0028040,2014,veteran,TE,12.224441623591737,6.174380055037115,75.47834854467034,48.53551756384348,539.376669771721,4.263725072809678,0.07192926958771063,0.1896317107312371,0.006539024507973694,0.1794443753025831,0.6430389442757708,11.113030144619897,0.05648937947133645,0.03153698149397675,0.002346464466742386,1.3672845962230786e-11,0.4285483164349845,103.48708476346772,103.9156330799027,veteran,Jordan Cameron,TE,10.0,67.4,48.0,24.0,424.0,2.0,0.0,0.0,0.0,0.0,0.0,0.0,0.0,0.0,0.0,0.0,1.0,0.0,0.0,1.0,1.0,0.0,0.0,0.0,0.0,0.0,0.0,0.0,0.0,16,175.70000000000002,8.26969696969697,0.8821022727272728,0.9375,26.067077344284737,0.825,1.0,0.9375,0.0625,0.0,1.0,1.0,15.0,118.0,80.0,917.0,7.0,0.0,0.0,0.0,0.0,0.0,0.0,0.0,,2
00-0028042,2014,veteran,TE,4.511735567809378,2.1634666541444454,9.760989453273044,6.264771821660178,67.65936502382145,0.5495990590368063,0.03935029885983837,0.10374169699411934,0.003577299896348943,0.0839668521435633,0.6418172923606101,10.799972760363294,0.05630567082034038,0.00021009691240465254,9.777081038092347e-06,1.3673625077466225e-11,0.0010140692421699371,13.059821032223452,13.060835101465623,veteran,Luke Stocker,TE,7.0,7.6,11.0,7.0,41.0,0.0,0.0,0.0,0.0,0.0,0.0,0.0,0.0,0.0,0.0,0.0,0.0,0.0,0.0,0.0,0.0,0.0,0.0,0.0,0.0,0.0,0.0,0.0,0.0,16,0.0,2.177142857142857,0.7482142857142856,0.0,26.12457221081451,0.328125,0.0,0.8125,0.0,1.0,0.0,16.0,0.0,0.0,0.0,0.0,0.0,0.0,0.0,0.0,0.0,0.0,0.0,0.0,,2
00-0028067,2014,veteran,TE,11.519889004721806,6.395972050614634,73.6808881003835,47.801532414476526,547.3687112373592,5.6861851315977985,0.07185858457836368,0.18944535934295878,0.006532598598033062,0.19400926614469363,0.6487643355947514,11.450861166776956,0.07717313509917102,0.04427558938389468,0.0034386123065325382,1.3672791504524769e-11,0.5694685237884118,112.42486971579407,112.99433823958249,veteran,Julius Thomas,TE,12.0,143.4,62.0,43.0,489.0,12.0,0.0,0.0,0.0,0.0,0.0,0.0,0.0,0.0,0.0,0.0,1.0,0.0,0.0,1.0,1.0,0.0,0.0,0.0,0.0,0.0,0.0,0.0,0.0,16,185.3,12.296987951807232,0.8298192771084338,0.875,26.17932922655715,0.51875,1.0,0.875,0.0,0.125,0.0,2.0,14.0,90.0,65.0,788.0,12.0,0.0,0.0,0.0,0.0,0.0,0.0,0.0,,2
00-0028079,2014,veteran,TE,2.667968868003999,0.9928459047682476,2.648881964646948,1.693910661056588,18.362141511468273,0.14857155112995177,0.060580915061403895,0.15971332152551934,0.0055073559146730814,0.048226345057261866,0.6394813674841711,10.840088520379679,0.05608839997887709,6.7265213279540105e-06,2.318204857648555e-07,1.3674156809305381e-11,1.8873957215874846e-05,3.527161565980899,3.527180439938115,veteran,,,0.0,0.0,0.0,0.0,0.0,0.0,0.0,0.0,0.0,0.0,0.0,0.0,0.0,0.0,0.0,0.0,0.0,0.0,0.0,0.0,0.0,0.0,0.0,0.0,0.0,0.0,0.0,0.0,0.0,16,0.0,0.509016393442623,0.45286885245901637,0.25,25.973990417522245,0.38125,1.0,0.625,0.0,0.75,0.0,12.0,4.0,2.0,0.0,0.0,0.0,0.0,0.0,0.0,0.0,0.0,0.0,0.0,,2
00-0028093,2014,veteran,TE,10.562654965146734,2.591455529679879,27.372650617530134,17.52070108853939,201.8049222110142,1.5539123842964668,0.14251704909045462,0.37449407484666264,0.012840530596491092,0.15830750916801617,0.6400805436547198,11.5180848752119,0.056768794736352726,0.0006384359046675193,3.274854111574181e-05,1.3673453300487448e-11,0.007262445777846512,38.0621946438775,38.069457089655344,veteran,Niles Paul,TE,16.0,74.2,52.0,39.0,507.0,1.0,0.0,0.0,0.0,0.0,0.0,0.0,0.0,0.0,0.0,1.0,0.0,0.0,0.0,0.0,0.0,0.0,0.0,0.0,0.0,0.0,0.0,0.0,0.0,16,7.1,0.972983870967742,0.7852822580645161,0.8125,25.062286105407257,0.775,1.0,0.8125,0.0,0.1875,0.0,3.0,13.0,8.0,4.0,51.0,0.0,0.0,0.0,0.0,0.0,0.0,0.0,0.0,,2
00-0028112,2014,veteran,TE,13.174415930563413,5.753754278684165,75.80235202964407,48.834537595979974,540.9651380566515,4.535124911436901,0.3911190501793886,1.0173321120349335,0.03700890143083435,0.1865048567071161,0.6442351231645453,11.077511218232225,0.0598282875136031,0.02261709186066736,0.0016196728059431524,1.3672898737789141e-11,0.32997434049783375,105.67530897865082,106.00528331914865,veteran,Charles Clay,TE,14.0,108.5,84.0,58.0,605.0,3.0,0.0,0.0,0.0,0.0,0.0,0.0,0.0,0.0,0.0,0.0,1.0,0.0,0.0,1.0,1.0,0.0,0.0,0.0,0.0,0.0,0.0,0.0,0.0,16,154.9,7.184300341296928,0.9251279863481228,1.0,25.54688569472964,0.915625,1.0,1.0,0.0,0.0,0.0,0.0,16.0,102.0,69.0,759.0,6.0,7.0,15.0,1.0,0.0,0.0,0.0,0.0,,2
00-0028238,2014,veteran,TE,2.668412698496514,1.1460385886127769,3.0581039228213562,1.963593051809852,21.01045203258918,0.1712475560571316,0.052576160498077874,0.13860987767675076,0.004779650954370716,0.04923167106700513,0.6420949390098796,10.700003248241154,0.05599795179594205,1.196687158539094e-05,4.336722871256301e-07,1.3674067804251554e-11,3.366845003277472e-05,4.054402616866521,4.054436285316553,veteran,,,0.0,0.0,0.0,0.0,0.0,0.0,0.0,0.0,0.0,0.0,0.0,0.0,0.0,0.0,0.0,0.0,0.0,0.0,0.0,0.0,0.0,0.0,0.0,0.0,0.0,0.0,0.0,0.0,0.0,16,1.2,0.8727272727272727,0.5125,0.25,27.411362080766597,0.34375,1.0,0.6875,0.0,0.75,0.0,12.0,4.0,3.0,1.0,7.0,0.0,0.0,0.0,0.0,0.0,0.0,0.0,0.0,,2
00-0028958,2014,veteran,TE,7.780519301185424,2.5430690074829716,19.78639749696772,12.744323852310226,136.5383938695367,1.2172582568693435,0.14094756197316902,0.3715890270201728,0.012813414724833548,0.13786384511923516,0.644095210068599,10.713663231712816,0.06151995364774661,0.00043151556003888787,2.138667272588665e-05,1.3673513849576327e-11,0.003607014486316327,27.167862555137393,27.17146956962371,veteran,Cory Harkey,TE,11.0,17.5,11.0,8.0,55.0,1.0,0.0,0.0,0.0,0.0,0.0,0.0,0.0,0.0,0.0,0.0,0.0,0.0,0.0,0.0,0.0,0.0,0.0,0.0,0.0,0.0,0.0,0.0,0.0,16,29.8,2.5626865671641794,0.5578358208955223,0.625,24.20807665982204,0.41875,1.0,0.625,0.0625,0.3125,1.0,6.0,10.0,18.0,13.0,113.0,2.0,0.0,0.0,0.0,0.0,0.0,0.0,0.0,,2
00-0029275,2014,veteran,TE,11.843727688857795,3.821204222629243,45.25730225633429,29.013193057677114,379.5720106490546,2.8147432783859805,0.07881682588040698,0.20778981368470928,0.0071651659891279074,0.19946311256914567,0.6410720836462668,13.082738252714206,0.0621942346992639,0.007110853137527089,0.00045307111081628837,1.3673079922748967e-11,0.09226808481050604,69.01710101622484,69.10936910103536,veteran,Ladarius Green,TE,10.0,32.1,25.0,19.0,226.0,0.0,0.0,0.0,0.0,0.0,0.0,0.0,0.0,0.0,0.0,0.0,0.0,0.0,0.0,0.0,0.0,0.0,0.0,0.0,0.0,0.0,0.0,0.0,0.0,16,64.1,4.522289156626506,0.8207831325301205,0.875,24.26009582477755,0.51875,1.0,0.875,0.0,0.125,0.0,2.0,14.0,30.0,17.0,376.0,3.0,0.0,0.0,0.0,0.0,0.0,0.0,0.0,,2
00-0029391,2014,veteran,TE,10.660055643181423,3.600992428458647,38.386779658044176,24.682609427062,274.8662941704582,2.2023115783098395,0.06986349172499258,0.18418556909316225,0.006351226520453871,0.1861432199329396,0.6429976582286608,11.136030612269664,0.057371615903402104,0.002570875486480674,0.00014920169634856367,1.3673237799825458e-11,0.029791423606789172,52.72604307660202,52.755834500208806,veteran,,,0.0,0.0,0.0,0.0,0.0,0.0,0.0,0.0,0.0,0.0,0.0,0.0,0.0,0.0,0.0,0.0,0.0,0.0,0.0,0.0,0.0,0.0,0.0,0.0,0.0,0.0,0.0,0.0,0.0,16,55.2,4.246153846153846,0.8125,0.8125,26.746064339493497,0.446875,1.0,0.8125,0.0,0.1875,0.0,3.0,13.0,40.0,26.0,302.0,2.0,0.0,0.0,0.0,0.0,0.0,0.0,0.0,,2
00-0029432,2014,veteran,TE,6.2148183970802915,2.530044497528281,15.723767088670522,10.118008441210458,112.71160229190393,0.8673361152422445,0.12316387118855009,0.3247047513152684,0.011196715562595463,0.11921720176586438,0.6434850112032509,11.139702338340784,0.05516083457298143,0.0005020986323894216,2.521766087679253e-05,1.3673490434234653e-11,0.003355536761801785,21.395397506224455,21.398753042986257,veteran,Chase Ford,TE,10.0,43.3,35.0,23.0,258.0,1.0,0.0,0.0,0.0,0.0,0.0,0.0,0.0,0.0,0.0,0.0,0.0,0.0,0.0,0.0,0.0,0.0,0.0,0.0,0.0,0.0,0.0,0.0,0.0,16,18.8,2.35,0.5,0.5,24.12046543463381,0.275,1.0,0.5,0.0,0.5,0.0,8.0,8.0,16.0,11.0,133.0,0.0,0.0,0.0,0.0,0.0,0.0,0.0,0.0,,2
00-0029634,2014,veteran,TE,7.757039772840109,2.264476132288296,17.565631422807453,11.344508682020239,117.12936979122347,0.9522390614796642,0.12873689504446564,0.3393972687535912,0.011703354094951423,0.13104116467775515,0.645835518744312,10.3247635551516,0.05421035194005404,0.00021678582292369034,1.0116036183843297e-05,1.3673620234467221e-11,0.0017993222052729142,22.94070321110001,22.942502533305284,veteran,James Hanna,TE,11.0,6.800000000000001,6.0,4.0,48.0,0.0,0.0,0.0,0.0,0.0,0.0,0.0,0.0,0.0,0.0,0.0,0.0,0.0,0.0,0.0,0.0,0.0,0.0,0.0,0.0,0.0,0.0,0.0,0.0,16,13.3,1.3530487804878049,0.6044207317073171,0.625,25.13347022587269,0.5125,1.0,0.625,0.0,0.375,0.0,6.0,10.0,15.0,12.0,73.0,0.0,0.0,0.0,0.0,0.0,0.0,0.0,0.0,,2
00-0029689,2014,veteran,TE,2.797464140895026,4.554979791515317,12.7423926292656,8.204639573351136,91.96892953731104,0.7623764027489314,0.05980047113158893,0.15663045349968774,0.005340281401284956,0.052429664173238764,0.6438853213883431,11.209380828382555,0.05982992558226252,0.008012291243076331,0.0005163247622863318,1.367306134370818e-11,0.02458069752674131,17.81631656231146,17.8408972598382,veteran,Dwayne Allen,TE,12.0,102.0,50.0,29.0,395.0,8.0,0.0,0.0,0.0,0.0,0.0,0.0,0.0,0.0,0.0,0.0,0.0,0.0,0.0,0.0,0.0,0.0,0.0,0.0,0.0,0.0,0.0,0.0,0.0,16,8.5,6.456435643564356,0.8422029702970297,0.0625,24.517453798767967,0.315625,1.0,0.9375,0.0,0.9375,0.0,15.0,1.0,2.0,1.0,20.0,1.0,0.0,0.0,0.0,0.0,0.0,0.0,0.0,,2
00-0029697,2014,veteran,TE,13.238899008328353,5.554585773073258,73.53660008281433,46.801138393073686,523.0793532585442,4.005793349061599,0.04576568375829986,0.12065498445369963,0.004160516705299987,0.19841764528434222,0.6364332637131427,11.176637389998982,0.054473464160029364,0.018911613346100573,0.0013282589553238117,1.3672926964355231e-11,0.27674596878526864,99.38345792486933,99.6602038936546,veteran,Coby Fleener,TE,16.0,152.9,92.0,51.0,774.0,8.0,0.0,0.0,0.0,0.0,0.0,0.0,0.0,0.0,0.0,0.0,2.0,0.0,0.0,2.0,2.0,0.0,0.0,0.0,0.0,0.0,0.0,0.0,0.0,16,115.8,6.420967741935484,0.9274193548387096,1.0,25.946611909650922,0.775,1.0,1.0,0.0,0.0,0.0,0.0,16.0,87.0,52.0,608.0,4.0,0.0,0.0,0.0,0.0,0.0,0.0,0.0,,2
00-0029883,2014,veteran,TE,11.093583529430406,4.104158987931769,45.52983055068364,29.19850728750367,323.66432013427396,3.463602317139118,0.07270473129327594,0.191676109773182,0.006609521026661449,0.19371337522839763,0.6413049847615839,11.084961191587876,0.07607325296946688,0.004581193022878059,0.0002801857718639829,1.367314823822709e-11,0.055484244163006485,67.41869754669443,67.47418179085744,veteran,Joseph Fauria,TE,6.0,18.4,12.0,6.0,74.0,1.0,0.0,0.0,0.0,0.0,0.0,0.0,0.0,0.0,0.0,0.0,0.0,0.0,0.0,0.0,0.0,0.0,0.0,0.0,0.0,0.0,0.0,0.0,0.0,16,73.7,5.6692307692307695,0.8125,0.8125,24.62422997946612,0.446875,1.0,0.8125,0.0,0.1875,0.0,3.0,13.0,30.0,18.0,207.0,7.0,0.0,0.0,0.0,0.0,0.0,0.0,0.0,,2
00-0029910,2014,veteran,TE,12.124943578517305,5.871524454530559,71.19190273106763,46.16909690130937,497.24386340939907,4.294378534666116,0.13028037715364607,0.3425644086617137,0.011714807764917373,0.20804654809763604,0.6485161251514284,10.770058259365628,0.06032116532814735,0.022485000957640673,0.0016091716299915532,1.3672899663551871e-11,0.3018960411385645,98.2636581908517,98.56555423199026,veteran,Timothy Wright,TE,13.0,74.7,33.0,26.0,259.0,6.0,1.0,-2.0,0.0,0.0,0.0,0.0,0.0,0.0,0.0,0.0,0.0,0.0,0.0,0.0,0.0,0.0,0.0,0.0,0.0,0.0,0.0,0.0,0.0,16,114.3,8.164285714285715,0.875,0.875,24.40246406570842,0.48125000000000007,1.0,0.875,0.0,0.125,0.0,2.0,14.0,75.0,54.0,571.0,5.0,1.0,2.0,0.0,0.0,0.0,0.0,0.0,,2
00-0030061,2014,veteran,TE,13.214572868611498,5.1687810789870605,68.30323421017488,43.898019525910236,510.39126184128514,4.149135132310419,0.016493902118103847,0.04348392376591014,0.0014994456471003497,0.22289247855519642,0.6426931320826227,11.626749164390738,0.060745807724758336,0.0170132845758155,0.001181645544627075,1.36729436047162e-11,0.24824570085441908,97.45050685009495,97.69875255094938,veteran,Zach Ertz,TE,16.0,116.2,89.0,58.0,702.0,3.0,0.0,0.0,0.0,0.0,0.0,0.0,0.0,0.0,0.0,1.0,1.0,0.0,0.0,1.0,1.0,0.0,0.0,0.0,0.0,0.0,0.0,0.0,0.0,16,88.89999999999999,5.926666666666666,0.9375,0.9375,23.808350444900753,0.515625,1.0,0.9375,0.0,0.0625,0.0,1.0,15.0,56.0,36.0,469.0,4.0,0.0,0.0,0.0,0.0,0.0,0.0,0.0,,2
00-0030089,2014,veteran,TE,11.093100255080644,3.4369803516943813,38.1267676160881,24.58653375979351,283.6565946755453,2.146835137061336,0.07270156402711284,0.19166775970784292,0.0066092330933738945,0.19370493641282419,0.6448627905560735,11.537071367880674,0.056307819185685434,0.002472689499229964,0.00014300255105889286,1.3673243830840535e-11,0.029809305271443355,53.21134947152467,53.24115877679611,veteran,Luke Willson,TE,13.0,66.2,40.0,22.0,362.0,3.0,0.0,0.0,0.0,0.0,0.0,0.0,0.0,0.0,0.0,0.0,1.0,0.0,0.0,1.0,1.0,0.0,0.0,0.0,0.0,0.0,0.0,0.0,0.0,16,43.199999999999996,3.323076923076923,0.8125,0.8125,24.62696783025325,0.446875,1.0,0.8125,0.0,0.1875,0.0,3.0,13.0,28.0,20.0,272.0,1.0,0.0,0.0,0.0,0.0,0.0,0.0,0.0,,2
00-0030108,2014,veteran,TE,9.105429166271504,3.411090207024743,31.059440259826196,19.995403690503583,227.18458581342165,1.7488893461588921,0.1079846395025609,0.28468677687038785,0.009816785409323719,0.16486781883312873,0.6437786232859649,11.361840417421451,0.056307819185685434,0.0022050207521654634,0.00012622010351950392,1.367326157201871e-11,0.021801592835937616,42.967130256024035,42.98893184885997,veteran,Ryan Griffin,TE,10.0,20.1,16.0,10.0,91.0,1.0,0.0,0.0,0.0,0.0,0.0,0.0,0.0,0.0,0.0,0.0,0.0,0.0,0.0,0.0,0.0,0.0,0.0,0.0,0.0,0.0,0.0,0.0,0.0,16,39.9,3.627272727272727,0.6875,0.6875,24.637919233401778,0.37812500000000004,1.0,0.6875,0.0625,0.25,1.0,5.0,11.0,28.0,19.0,244.0,1.0,0.0,0.0,0.0,0.0,0.0,0.0,0.0,,2
00-0030470,2014,veteran,TE,8.18433546529347,2.5948167088043244,21.23685041580331,13.550331166083105,154.23498047392138,1.1592530787370157,0.1187724722217382,0.3131274267664007,0.010797497474703472,0.15099932321427562,0.6380574756038063,11.382377196800642,0.0545868646263272,0.0005992457712238313,3.056770987559039e-05,1.3673463093489748e-11,0.0052796932297121514,28.948281183952094,28.953560877181808,veteran,Vance McDonald,TE,4.0,2.0,8.0,2.0,30.0,0.0,0.0,0.0,0.0,0.0,0.0,0.0,0.0,0.0,0.0,1.0,0.0,0.0,0.0,0.0,0.0,0.0,0.0,0.0,0.0,0.0,0.0,0.0,0.0,16,15.899999999999999,1.5899999999999999,0.625,0.625,24.21902806297057,0.34375,1.0,0.625,0.0,0.375,0.0,6.0,10.0,19.0,8.0,119.0,0.0,0.0,0.0,0.0,0.0,0.0,0.0,0.0,,2
00-0030472,2014,veteran,TE,7.20050945366026,6.319669502943769,45.50483999995504,29.546979916203153,324.7159895743069,2.5908748645633315,0.20025321711856758,0.5614148730620179,0.018006763521137274,0.13542852281837112,0.6493151039808589,10.989819957749292,0.056936248200540676,0.03486608990585971,0.002626043064592002,1.3672829927176969e-11,0.27941688204468457,62.68366312570853,62.96308000775321,veteran,Jordan Reed,TE,11.0,70.5,65.0,50.0,465.0,0.0,0.0,0.0,0.0,0.0,0.0,0.0,0.0,0.0,0.0,1.0,1.0,0.0,0.0,1.0,1.0,0.0,0.0,0.0,0.0,0.0,0.0,0.0,0.0,16,93.2,10.355555555555556,0.5625,0.5625,24.164271047227928,0.309375,1.0,0.5625,0.125,0.3125,2.0,7.0,9.0,60.0,45.0,499.0,3.0,1.0,18.0,0.0,0.0,0.0,0.0,0.0,,2
00-0030514,2014,veteran,TE,14.180303008136207,5.138947326090986,72.87183022682153,46.791316753105534,508.3854142989388,4.372766570239431,0.0,0.0,0.0,0.23520749546350467,0.6421043166812532,10.864952080349338,0.06000626794508547,0.012017709713759775,0.0008056121291398504,1.367299808912969e-11,0.18755050174005922,100.00038423695621,100.18793473869627,veteran,Mychal Rivera,TE,16.0,105.4,99.0,58.0,534.0,4.0,0.0,0.0,0.0,0.0,0.0,0.0,0.0,0.0,0.0,1.0,1.0,0.0,0.0,1.0,1.0,0.0,0.0,0.0,0.0,0.0,0.0,0.0,0.0,16,83.7,5.23125,1.0,1.0,23.980835044490075,0.55,1.0,1.0,0.0,0.0,0.0,0.0,16.0,60.0,38.0,407.0,4.0,0.0,0.0,0.0,0.0,0.0,0.0,0.0,,2
00-0030544,2014,veteran,TE,7.292742246607894,2.9653045112069103,21.625201482935605,13.883011006615565,158.60148790629827,1.3493674709679473,0.12517972130470284,0.3300192652578529,0.011379974664063895,0.1371632543654509,0.64198296684406,11.424141912062241,0.062397914397825605,0.0011632536825866274,6.290793351735009e-05,1.367336053183954e-11,0.009171466490567465,30.724814385524557,30.733985852015124,veteran,Gavin Escobar,TE,12.0,39.0,13.0,9.0,105.0,4.0,0.0,0.0,0.0,0.0,0.0,0.0,0.0,0.0,0.0,0.0,0.0,0.0,0.0,0.0,0.0,0.0,0.0,0.0,0.0,0.0,0.0,0.0,0.0,16,29.9,3.322222222222222,0.5625,0.5625,23.575633127994525,0.309375,1.0,0.5625,0.0,0.4375,0.0,7.0,9.0,15.0,9.0,134.0,2.0,0.0,0.0,0.0,0.0,0.0,0.0,0.0,,2
00-0030549,2014,veteran,TE,13.187434995848102,5.072702409989497,66.8959332850185,43.0674955743463,478.1809848826488,3.6145197783937073,0.016460029709097258,0.04339462377852913,0.0014963663371906598,0.2224347393771624,0.6437984113451537,11.103059941276996,0.05403198073332191,0.012671723911408046,0.000853961967492412,1.3672989800354014e-11,0.18399988763050007,90.60741312744695,90.79141301507745,veteran,Tyler Eifert,TE,1.0,5.2,3.0,3.0,37.0,0.0,0.0,0.0,0.0,0.0,0.0,0.0,0.0,0.0,0.0,0.0,0.0,0.0,0.0,0.0,0.0,0.0,0.0,0.0,0.0,0.0,0.0,0.0,0.0,16,76.0,5.066666666666666,0.9375,0.9375,23.980835044490075,0.515625,1.0,0.9375,0.0625,0.0,1.0,1.0,15.0,59.0,39.0,445.0,2.0,0.0,0.0,0.0,0.0,0.0,0.0,0.0,,2
00-0030992,2014,rookie,TE,6.574236592307217,2.4529750516099043,16.126438344310515,10.532443471487355,119.44053115176324,0.8303586139346878,0.26156198143914844,1.5039813932751036,0.0,0.0,0.6531165311653117,11.340248962655602,0.051490514905149054,0.0005061962033317759,2.544159279032742e-05,1.3673489177928638e-11,0.0035787423580493755,22.342824673855638,22.346403416213686,rookie,Crockett Gillmore,TE,9.0,23.1,15.0,10.0,121.0,1.0,0.0,0.0,0.0,0.0,0.0,0.0,0.0,0.0,0.0,0.0,0.0,0.0,0.0,0.0,0.0,0.0,0.0,0.0,0.0,0.0,0.0,0.0,0.0,16,0.0,,,0.0,22.792607802874745,0.0,0.0,0.0,0.0,1.0,0.0,16.0,0.0,0.0,0.0,0.0,0.0,0.0,0.0,0.0,0.0,0.0,0.0,0.0,,2
00-0031042,2014,rookie,TE,12.977769539212012,2.807584377364893,36.43618301133363,23.79707345726668,269.86473758800764,1.876117824431813,0.428650003119599,2.464737517937694,0.0,0.0,0.6531165311653117,11.340248962655602,0.051490514905149054,0.0009447919149042161,5.0163940682147696e-05,1.3673392701415107e-11,0.013237816181065424,50.388191185818755,50.40142900199982,rookie,Jace Amaro,TE,14.0,65.5,53.0,38.0,345.0,2.0,0.0,0.0,0.0,0.0,0.0,0.0,0.0,0.0,0.0,0.0,0.0,0.0,0.0,0.0,0.0,0.0,0.0,0.0,0.0,0.0,0.0,0.0,0.0,16,0.0,,,0.0,22.182067077344286,0.0,0.0,0.0,0.0,1.0,0.0,16.0,0.0,0.0,0.0,0.0,0.0,0.0,0.0,0.0,0.0,0.0,0.0,0.0,,2
00-0031044,2014,rookie,TE,13.386439477718259,2.6163158982768175,35.0231544268747,22.87420112974743,259.3991356331939,1.8033602550423287,0.46633582335258,2.681430984277335,0.0,0.0,0.6531165311653117,11.340248962655602,0.051490514905149054,0.0006815613060786699,3.516206714367153e-05,1.3673443195514558e-11,0.009829721865849501,48.465318756874815,48.475148478740664,rookie,Troy Niklas,TE,4.0,5.300000000000001,3.0,3.0,38.0,0.0,0.0,0.0,0.0,0.0,0.0,0.0,0.0,0.0,0.0,0.0,0.0,0.0,0.0,0.0,0.0,0.0,0.0,0.0,0.0,0.0,0.0,0.0,0.0,16,0.0,,,0.0,21.95208761122519,0.0,0.0,0.0,0.0,1.0,0.0,16.0,0.0,0.0,0.0,0.0,0.0,0.0,0.0,0.0,0.0,0.0,0.0,0.0,,2
00-0031302,2014,rookie,TE,8.942172799505364,2.9135683878248084,26.0536319871057,17.01605774767608,192.9663312215715,1.3415149261653343,0.30260560115483215,1.7399822066402848,0.0,0.0,0.6531165311653117,11.340248962655602,0.051490514905149054,0.0011219928315677145,6.048321791572028e-05,1.367336611756896e-11,0.010844331103332789,36.02774977365122,36.03859410475456,rookie,C.J. Fiedorowicz,TE,8.0,10.799999999999999,7.0,4.0,28.0,1.0,0.0,0.0,0.0,0.0,0.0,0.0,0.0,0.0,0.0,0.0,0.0,0.0,0.0,0.0,0.0,0.0,0.0,0.0,0.0,0.0,0.0,0.0,0.0,16,0.0,,,0.0,22.861054072553046,0.0,0.0,0.0,0.0,1.0,0.0,16.0,0.0,0.0,0.0,0.0,0.0,0.0,0.0,0.0,0.0,0.0,0.0,0.0,,2
00-0031384,2014,rookie,TE,7.255675349150314,2.358053985482041,17.109274174427696,11.174349799558469,126.71990872279376,0.8809653368946511,0.2935278924582734,1.6877853816350719,0.0,0.0,0.6531165311653117,11.340248962655602,0.051490514905149054,0.00042211964042258745,2.088066680247369e-05,1.3673517252136822e-11,0.003290018276916361,23.713736331590027,23.717026349866945,rookie,Richard Rodgers,TE,13.0,44.5,30.0,20.0,225.0,2.0,0.0,0.0,0.0,0.0,0.0,0.0,0.0,0.0,0.0,0.0,0.0,0.0,0.0,0.0,0.0,0.0,0.0,0.0,0.0,0.0,0.0,0.0,0.0,16,0.0,,,0.0,22.60917180013689,0.0,0.0,0.0,0.0,1.0,0.0,16.0,0.0,0.0,0.0,0.0,0.0,0.0,0.0,0.0,0.0,0.0,0.0,0.0,,2
00-0031387,2014,rookie,TE,16.0,3.9475426179826254,63.160681887722006,41.25128546054472,467.7998471521524,3.2521760321591278,0.2426784315871973,1.3954009816263844,0.0,0.0,0.6531165311653117,11.340248962655602,0.051490514905149054,0.004626697994066191,0.0002832260714200617,1.3673146704208873e-11,0.08082459405668124,87.058223736605,87.13904833066168,rookie,Eric Ebron,TE,12.0,43.3,47.0,25.0,248.0,1.0,0.0,0.0,0.0,0.0,0.0,0.0,0.0,0.0,0.0,0.0,0.0,0.0,0.0,0.0,0.0,0.0,0.0,0.0,0.0,0.0,0.0,0.0,0.0,16,0.0,,,0.0,21.39356605065024,0.0,0.0,0.0,0.0,1.0,0.0,16.0,0.0,0.0,0.0,0.0,0.0,0.0,0.0,0.0,0.0,0.0,0.0,0.0,,2
00-0031418,2014,rookie,TE,15.425439929726377,2.9132034182127904,44.937444330714946,29.349387760710847,332.8293641079782,2.313852147109984,0.47448881536149207,2.7283106883285795,0.0,0.0,0.6531165311653117,11.340248962655602,0.051490514905149054,0.0011213404913800993,6.044494605020002e-05,1.3673366207518512e-11,0.01869575563891833,62.11357424264601,62.132269998284926,rookie,Austin Seferian-Jenkins,TE,9.0,42.6,38.0,21.0,221.0,2.0,0.0,0.0,0.0,0.0,0.0,0.0,0.0,0.0,0.0,1.0,0.0,0.0,0.0,0.0,0.0,0.0,0.0,0.0,0.0,0.0,0.0,0.0,0.0,16,0.0,,,0.0,21.921971252566735,0.0,0.0,0.0,0.0,1.0,0.0,16.0,0.0,0.0,0.0,0.0,0.0,0.0,0.0,0.0,0.0,0.0,0.0,0.0,,2
00-0006101,2015,veteran,TE,0.0,7.441256790653443,0.0,0.0,0.0,0.0,0.0,0.0,0.0,0.0,0.659175899631213,10.564904106421285,0.061109030689450616,4.6688176832251093e-07,9.273724438503099e-07,1.3673524111605903e-11,0.0,0.0,0.0,veteran,,,0.0,0.0,0.0,0.0,0.0,0.0,0.0,0.0,0.0,0.0,0.0,0.0,0.0,0.0,0.0,0.0,0.0,0.0,0.0,0.0,0.0,0.0,0.0,0.0,0.0,0.0,0.0,0.0,0.0,16,0.0,11.381250000000001,1.0,0.0,39.50992470910335,0.44999999999999996,0.0,1.0,0.0,1.0,0.0,16.0,0.0,0.0,0.0,0.0,0.0,0.0,0.0,0.0,0.0,0.0,0.0,0.0,,3
00-0021547,2015,veteran,TE,9.848481192203888,6.296720185687573,62.01313032131464,40.849611769286255,459.74666260417683,4.592527502988756,0.04373845018139274,0.09330869372030451,0.002915896678759516,0.23143397416328745,0.6587252015440634,11.254615226229596,0.07405734042440767,0.06787742497696925,0.003927856231362853,1.3672758954201169e-11,0.7265146708606107,93.51859546411137,94.24511013497198,veteran,Antonio Gates,TE,11.0,121.0,85.0,56.0,630.0,5.0,0.0,0.0,0.0,0.0,0.0,0.0,0.0,0.0,0.0,0.0,0.0,0.0,0.0,0.0,0.0,0.0,0.0,0.0,0.0,0.0,0.0,0.0,0.0,16,188.6,10.478548895899051,0.9911277602523659,1.0,35.20328542094456,0.9906250000000001,1.0,1.0,0.0,0.0,0.0,0.0,16.0,98.0,69.0,821.0,12.0,0.0,0.0,0.0,0.0,0.0,0.0,0.0,,3
00-0022127,2015,veteran,TE,11.112442615682244,5.9547296060094554,66.17159103868421,43.954777017397326,474.66090675747216,3.681924472481208,0.04769896222977028,0.10175778609017659,0.0031799308153180185,0.17733490948093117,0.6642544984554046,10.798846882321826,0.055642072597721554,0.052721521841523546,0.003257428981143307,1.3672776154823968e-11,0.6401618753206673,91.20961156387219,91.84977343919286,veteran,Jason Witten,TE,16.0,125.8,104.0,77.0,713.0,3.0,0.0,0.0,0.0,0.0,0.0,0.0,0.0,0.0,0.0,1.0,0.0,0.0,0.0,0.0,0.0,0.0,0.0,0.0,0.0,0.0,0.0,0.0,0.0,16,132.3,9.484687500000001,1.0,1.0,33.322381930184804,1.0,1.0,1.0,0.0,0.0,0.0,0.0,16.0,90.0,64.0,703.0,5.0,0.0,0.0,0.0,0.0,0.0,0.0,0.0,,3
00-0022165,2015,veteran,TE,0.0,3.611814310691362,0.0,0.0,0.0,0.0,0.0,0.0,0.0,0.0,0.640541462269405,10.760984430769373,0.057804200155976614,4.6688176832251093e-07,9.273724438503099e-07,1.3673524111605903e-11,0.0,0.0,0.0,veteran,,,0.0,0.0,0.0,0.0,0.0,0.0,0.0,0.0,0.0,0.0,0.0,0.0,0.0,0.0,0.0,0.0,0.0,0.0,0.0,0.0,0.0,0.0,0.0,0.0,0.0,0.0,0.0,0.0,0.0,16,0.0,5.963157894736842,0.819078947368421,0.0,36.2217659137577,0.35624999999999996,0.0,1.0,0.0,1.0,0.0,16.0,0.0,0.0,0.0,0.0,0.0,0.0,0.0,0.0,0.0,0.0,0.0,0.0,,3
00-0022922,2015,veteran,TE,0.9452377232556812,2.204010230692906,2.083313612492391,1.3456658326926292,15.124141006230586,0.11671829282787013,0.0057644153531230275,0.012297419419995792,0.0003842943568748685,0.0178806566245967,0.6459257140276301,11.239150641112527,0.0560253108931752,0.0029861012023229285,0.00042396173953656235,1.3672963144776313e-11,0.003423692471883766,2.8533309687706496,2.856754661242533,veteran,,,0.0,0.0,0.0,0.0,0.0,0.0,0.0,0.0,0.0,0.0,0.0,0.0,0.0,0.0,0.0,0.0,0.0,0.0,0.0,0.0,0.0,0.0,0.0,0.0,0.0,0.0,0.0,0.0,0.0,16,0.0,5.372,0.7225,0.0,32.114989733059545,0.23437499999999997,0.0,0.75,0.0,1.0,0.0,16.0,0.0,0.0,0.0,0.0,0.0,0.0,0.0,0.0,0.0,0.0,0.0,0.0,,3
00-0022943,2015,veteran,TE,9.148285287672227,3.014639631356208,27.578783387169622,17.718859075347797,181.78996869677806,1.5927580166202526,0.05013541685139544,0.10695555594964361,0.0033423611234263627,0.14823378722534125,0.6424815346855032,10.25968816184683,0.05775301956797868,0.005618603463454525,0.000660462502685994,1.3672922527092291e-11,0.06046373674672503,36.329256654958066,36.38972039170479,veteran,Benjamin Watson,TE,16.0,155.5,110.0,74.0,825.0,6.0,0.0,0.0,0.0,0.0,0.0,0.0,0.0,0.0,0.0,1.0,2.0,0.0,0.0,2.0,2.0,0.0,0.0,0.0,0.0,0.0,0.0,0.0,0.0,16,35.6,3.144781144781145,0.9299242424242425,0.9375,34.70225872689939,0.928125,1.0,1.0,0.0,0.0625,0.0,1.0,15.0,31.0,20.0,136.0,2.0,0.0,0.0,0.0,0.0,0.0,0.0,0.0,,3
00-0023465,2015,veteran,TE,11.068607213625599,5.17587406486047,57.289717011132254,38.41728946122396,422.5498006890473,2.702073361965257,0.05556004542569867,0.11852809690815717,0.0037040030283799117,0.2968939928511173,0.6705791451851455,10.998948822652961,0.04716506736174318,0.03813423511779062,0.0025718271994087934,1.3672797859272303e-11,0.46479268785091166,77.11635381346711,77.58114650131803,veteran,Heath Miller,TE,15.0,98.7,81.0,60.0,535.0,2.0,1.0,2.0,0.0,0.0,0.0,0.0,0.0,0.0,0.0,0.0,1.0,0.0,0.0,1.0,1.0,0.0,0.0,0.0,0.0,0.0,0.0,0.0,0.0,16,128.1,8.079344262295082,0.9563524590163935,1.0,32.85968514715948,0.953125,1.0,1.0,0.0,0.0,0.0,0.0,16.0,91.0,66.0,761.0,3.0,0.0,0.0,0.0,0.0,0.0,0.0,0.0,,3
00-0023752,2015,veteran,TE,7.914301091848408,1.4781651413991366,11.698643992507442,7.632581353540341,85.57092705261314,0.8581782557127057,0.0538413303061676,0.11486150465315755,0.0035894220204111733,0.19965970613046974,0.6524329963736595,11.211269567788023,0.07335707080772248,0.0009698724255888496,0.00019299867544923016,1.367303523399795e-11,0.009967037054966241,17.156156186634565,17.16612322368953,veteran,Daniel Fells,TE,2.0,9.0,7.0,6.0,60.0,0.0,0.0,0.0,0.0,0.0,0.0,0.0,0.0,0.0,0.0,0.0,0.0,0.0,0.0,0.0,0.0,0.0,0.0,0.0,0.0,0.0,0.0,0.0,0.0,16,48.8,3.465243902439024,0.7644817073170731,0.8125,31.939767282683093,0.5125000000000001,1.0,0.8125,0.0,0.1875,0.0,3.0,13.0,20.0,16.0,188.0,4.0,0.0,0.0,0.0,0.0,0.0,0.0,0.0,,3
00-0024221,2015,veteran,TE,9.463714345310008,4.1818419190595835,39.57575735922291,24.926477421877795,295.3245371555226,2.867272959974179,0.08388109082823875,0.18064994569405063,0.005531229200675157,0.19120702780311744,0.6298420822531351,11.84782479117239,0.07245023598533805,0.021167339732244522,0.0016853428474510837,1.3672836645254199e-11,0.22424606185816728,58.86816850050345,59.09241456236162,veteran,Vernon Davis,TE,13.0,58.5,58.0,38.0,395.0,0.0,0.0,0.0,0.0,0.0,0.0,0.0,0.0,0.0,0.0,0.0,0.0,0.0,0.0,0.0,0.0,0.0,0.0,0.0,0.0,0.0,0.0,0.0,0.0,16,49.9,7.134519572953735,0.8845640569395017,0.8125,31.583846680355922,0.878125,1.0,1.0,0.0,0.1875,0.0,3.0,13.0,50.0,26.0,245.0,2.0,1.0,4.0,0.0,0.0,0.0,0.0,0.0,,3
00-0024243,2015,veteran,TE,4.836833441694983,3.0535547206605833,14.769535588936693,9.377605182797106,105.90060119607986,0.908039465866876,0.04937682236635932,0.10533722104823322,0.003291788157757288,0.10353375704683204,0.6349289133926134,11.292925979689448,0.06148056994744333,0.007466941143947347,0.0008065925008574964,1.3672904209404044e-11,0.041968381137431725,20.550316443165496,20.59228482430293,veteran,Marcedes Lewis,TE,15.0,30.6,37.0,16.0,226.0,0.0,0.0,0.0,0.0,0.0,0.0,0.0,0.0,0.0,0.0,0.0,0.0,0.0,0.0,0.0,0.0,0.0,0.0,0.0,0.0,0.0,0.0,0.0,0.0,16,41.6,6.191709844559586,0.6408678756476683,0.5,31.28542094455852,0.603125,1.0,0.9375,0.0,0.5,0.0,8.0,8.0,31.0,18.0,206.0,2.0,0.0,0.0,0.0,0.0,0.0,0.0,0.0,,3
00-0024268,2015,veteran,TE,9.752453332821261,2.9329619414525445,28.603574460956786,18.57382915350835,187.4031565258539,2.0062671188359977,0.06789141349590702,0.14483501545793498,0.004526094233060468,0.1624335173414711,0.649353428847195,10.08963499001798,0.07014043372706813,0.0050930675874503485,0.0006164619101580971,1.3672928844814011e-11,0.05868792824962133,39.78160597461676,39.84029390286638,veteran,Anthony Fasano,TE,14.0,53.9,42.0,26.0,289.0,2.0,0.0,0.0,0.0,0.0,0.0,0.0,0.0,0.0,0.0,0.0,0.0,0.0,0.0,0.0,0.0,0.0,0.0,0.0,0.0,0.0,0.0,0.0,0.0,16,59.1,4.70390625,0.8325195312500001,0.875,31.364818617385353,0.8,1.0,1.0,0.0,0.125,0.0,2.0,14.0,36.0,25.0,226.0,4.0,0.0,0.0,0.0,0.0,0.0,0.0,0.0,,3
00-0024313,2015,veteran,TE,9.59187783203173,4.660173783604319,44.6998176083697,28.304527417788268,309.3040253710952,2.5634726615148384,0.05792524712128283,0.12357386052540337,0.0038616831414188552,0.16150415014580496,0.633213487933527,10.927722650359811,0.05734861569177517,0.023304664224138506,0.001805055919858084,1.3672830350044574e-11,0.24950630621164993,60.17602139970213,60.42552770591378,veteran,Owen Daniels,TE,16.0,93.7,77.0,46.0,517.0,3.0,0.0,0.0,0.0,0.0,0.0,0.0,0.0,0.0,0.0,0.0,1.0,0.0,0.0,1.0,1.0,0.0,0.0,0.0,0.0,0.0,0.0,0.0,0.0,16,100.7,7.727916666666668,0.859375,0.9375,32.8104038329911,0.75,1.0,0.9375,0.0625,0.0,1.0,1.0,15.0,79.0,48.0,527.0,4.0,0.0,0.0,0.0,0.0,0.0,0.0,0.0,,3
00-0024389,2015,veteran,TE,11.389968262452088,5.269557313303591,60.02009055570019,38.24906393314625,453.8325368215979,3.238749863531111,0.05910268125579755,0.1260857200123681,0.003940178750386503,0.20536242885879444,0.6372710134059217,11.865193292437967,0.05396109591879852,0.0431633100597392,0.00281396935687883,1.3672789597040607e-11,0.5397052644938176,83.56580961670556,84.10551488119938,veteran,Delanie Walker,TE,15.0,198.4,133.0,94.0,1088.0,6.0,1.0,36.0,0.0,0.0,0.0,0.0,0.0,0.0,0.0,0.0,1.0,0.0,0.0,1.0,1.0,0.0,0.0,0.0,0.0,0.0,0.0,0.0,0.0,16,148.0,8.413531353135314,0.9474009900990099,0.9375,31.052703627652292,0.946875,1.0,1.0,0.0,0.0625,0.0,1.0,15.0,106.0,63.0,890.0,4.0,0.0,0.0,0.0,0.0,0.0,0.0,0.0,,3
00-0025418,2015,veteran,TE,12.645090610494956,6.47520392547956,81.87954035912166,53.67171662227535,611.1262508931718,4.407023275431685,0.054277688558843545,0.11579240225886622,0.0036185125705895695,0.20179325791304645,0.6554960663783957,11.386374227492778,0.05382325372251223,0.07483539738009688,0.004225842827409302,1.367275223029853e-11,1.0264546292769596,114.0203268528683,115.04678148214525,veteran,Greg Olsen,TE,16.0,191.9,124.0,77.0,1104.0,7.0,0.0,0.0,0.0,0.0,0.0,0.0,0.0,0.0,0.0,1.0,3.0,0.0,0.0,3.0,3.0,0.0,0.0,0.0,0.0,0.0,0.0,0.0,0.0,16,181.8,10.543125,1.0,1.0,30.47501711156742,1.0,1.0,1.0,0.0,0.0,0.0,0.0,16.0,123.0,84.0,1008.0,6.0,0.0,0.0,0.0,0.0,0.0,0.0,0.0,,3
00-0025425,2015,veteran,TE,2.871907313482792,2.7197747856792396,7.810941098018301,5.055357687386826,56.104549267680156,0.4749219236317807,0.02093445224711177,0.04466016479383844,0.0013956301498074513,0.05702308217132296,0.6472149288988251,11.09803751526062,0.06080213865039544,0.005345024964427134,0.0006377151673291196,1.367292573883448e-11,0.01809760464407824,10.886458945287696,10.904556549931774,veteran,,,0.0,0.0,0.0,0.0,0.0,0.0,0.0,0.0,0.0,0.0,0.0,0.0,0.0,0.0,0.0,0.0,0.0,0.0,0.0,0.0,0.0,0.0,0.0,0.0,0.0,0.0,0.0,0.0,0.0,16,10.600000000000001,5.355974842767296,0.7393867924528302,0.1875,29.72210814510609,0.49687499999999996,1.0,1.0,0.375,0.4375,6.0,13.0,3.0,7.0,6.0,76.0,0.0,0.0,0.0,0.0,0.0,0.0,0.0,0.0,,3
00-0025516,2015,veteran,TE,12.753745261917448,4.566284311748823,58.23722690553453,37.685032043009215,421.3001249172525,2.987916206678646,0.05664112474582685,0.12083439945776395,0.0037760749830551233,0.27576229742853836,0.6470952352202033,11.179508204648217,0.0513059492260043,0.02501047133697356,0.0018985290307493646,1.367282571796256e-11,0.35529721410680676,78.38324104828878,78.7385382623956,veteran,Scott Chandler,TE,12.0,61.4,42.0,23.0,259.0,4.0,0.0,0.0,0.0,0.0,0.0,0.0,0.0,0.0,0.0,0.0,0.0,0.0,0.0,0.0,0.0,0.0,0.0,0.0,0.0,0.0,0.0,0.0,0.0,16,92.2,6.195583596214511,0.9911277602523659,1.0,30.10814510609172,0.9906250000000001,1.0,1.0,0.0,0.0,0.0,0.0,16.0,70.0,47.0,497.0,3.0,0.0,0.0,0.0,0.0,0.0,0.0,0.0,,3
00-0025542,2015,veteran,TE,9.648142074317661,1.3822449579042038,13.336095735368993,8.621885434834711,89.0617436767137,0.716102354808907,0.07631667436566056,0.1628089053134092,0.005087778291044037,0.25035946800745795,0.6465074640974864,10.329729425176605,0.05369655175087819,0.0006219428957689951,0.00014146157925714703,1.3673063687943541e-11,0.008047855806426581,17.05981983820486,17.067867694011287,veteran,,,0.0,0.0,0.0,0.0,0.0,0.0,0.0,0.0,0.0,0.0,0.0,0.0,0.0,0.0,0.0,0.0,0.0,0.0,0.0,0.0,0.0,0.0,0.0,0.0,0.0,0.0,0.0,0.0,0.0,16,19.6,1.3190871369294608,0.7793049792531122,0.875,30.850102669404517,0.753125,1.0,0.875,0.0,0.125,0.0,2.0,14.0,22.0,16.0,116.0,0.0,0.0,0.0,0.0,0.0,0.0,0.0,0.0,,3
00-0025549,2015,veteran,TE,12.521904031350132,3.750272203580115,46.96054862467018,30.155453500703715,346.84616252651114,2.484071003212538,0.05561148617361853,0.1186378371703862,0.003707432411574569,0.35694743364009496,0.6421444038424605,11.501938198953534,0.052896975779954156,0.01491138054793018,0.0013140249627902132,1.3672859470402412e-11,0.21140001825682958,63.98698253318449,64.19838255144131,veteran,Brent Celek,TE,12.0,72.3,35.0,27.0,398.0,3.0,0.0,0.0,0.0,0.0,0.0,0.0,0.0,0.0,0.0,0.0,1.0,0.0,0.0,1.0,1.0,0.0,0.0,0.0,0.0,0.0,0.0,0.0,0.0,16,55.0,4.783596214511041,0.9911277602523659,1.0,30.598220396988363,0.9906250000000001,1.0,1.0,0.0,0.0,0.0,0.0,16.0,51.0,32.0,340.0,1.0,0.0,0.0,0.0,0.0,0.0,0.0,0.0,,3
00-0026178,2015,veteran,TE,11.509223385036414,3.0640733059930607,35.26510414680117,22.59742019322925,242.08298927258267,1.5741287426432238,0.06599837704750425,0.1407965377013424,0.00439989180316695,0.23253495567155766,0.6407869972299236,10.712859574347197,0.044637008190602775,0.006637561396524278,0.0007425040959100304,1.3672911796972191e-11,0.08921164541542093,44.52719057297825,44.61640221839367,veteran,,,0.0,0.0,0.0,0.0,0.0,0.0,0.0,0.0,0.0,0.0,0.0,0.0,0.0,0.0,0.0,0.0,0.0,0.0,0.0,0.0,0.0,0.0,0.0,0.0,0.0,0.0,0.0,0.0,0.0,16,59.5,3.579359430604982,0.9059163701067615,1.0,31.304585900068446,0.878125,1.0,1.0,0.0,0.0,0.0,0.0,16.0,55.0,33.0,350.0,1.0,0.0,0.0,0.0,0.0,0.0,0.0,0.0,,3
00-0026188,2015,veteran,TE,0.6686318567560958,1.1858385860665361,0.7928894556146914,0.5078976016375943,5.650521642482605,0.043887886819057774,0.01047780689799235,0.022317136726232294,0.0006964311663670555,0.012760078140156339,0.6405654634968556,11.125316647024617,0.05535183562888155,0.00048666671574685964,0.00011917294447065014,1.3673079391303774e-11,0.0004449251287604796,1.0632184303719172,1.0636633555006776,veteran,,,0.0,0.0,0.0,0.0,0.0,0.0,0.0,0.0,0.0,0.0,0.0,0.0,0.0,0.0,0.0,0.0,0.0,0.0,0.0,0.0,0.0,0.0,0.0,0.0,0.0,0.0,0.0,0.0,0.0,16,0.0,3.695238095238095,0.43749999999999994,0.0,29.626283367556468,0.19687500000000002,0.0,0.4375,0.0,1.0,0.0,16.0,0.0,0.0,0.0,0.0,0.0,0.0,0.0,0.0,0.0,0.0,0.0,0.0,,3
00-0026201,2015,veteran,TE,13.515528916552096,6.4198351916106855,86.76746817171299,57.35933991589496,613.7646127284734,4.644138896001647,0.05801395117183304,0.12376309583324382,0.0038675967447888695,0.2663525729064553,0.6610696511552084,10.700343023968305,0.05352396461322217,0.06277882006520524,0.003705962219045372,1.3672764299834775e-11,0.9236210176106276,117.42384135104385,118.34746236865448,veteran,Martellus Bennett,TE,11.0,88.4,80.0,53.0,439.0,3.0,0.0,0.0,0.0,0.0,0.0,0.0,0.0,0.0,0.0,0.0,0.0,0.0,0.0,0.0,0.0,0.0,0.0,0.0,0.0,0.0,0.0,0.0,0.0,16,178.6,9.8228125,1.0,1.0,28.479123887748116,1.0,1.0,1.0,0.0,0.0,0.0,0.0,16.0,128.0,90.0,916.0,6.0,0.0,0.0,0.0,0.0,0.0,0.0,0.0,,3
00-0026231,2015,veteran,TE,2.780521349548364,3.7950149903929127,10.552120202643573,6.891018115983212,76.26471592913386,0.601201305306262,0.016807640337046768,0.03585629938569977,0.0011205093558031179,0.05819581162098031,0.6530458318942233,11.067263885469032,0.05697445572650375,0.014486334474167162,0.0012873852278758443,1.3672861348496425e-11,0.04564896552495858,14.573105545573991,14.61875451109895,veteran,,,0.0,0.0,0.0,0.0,0.0,0.0,0.0,0.0,0.0,0.0,0.0,0.0,0.0,0.0,0.0,0.0,0.0,0.0,0.0,0.0,0.0,0.0,0.0,0.0,0.0,0.0,0.0,0.0,0.0,16,0.0,8.15,0.7321428571428572,0.0,28.435318275154003,0.26249999999999996,0.0,1.0,0.0,1.0,0.0,16.0,0.0,0.0,0.0,0.0,0.0,0.0,0.0,0.0,0.0,0.0,0.0,0.0,,3
00-0026267,2015,veteran,TE,9.549225367106436,2.48089782393898,23.69065243355726,15.133755100223727,156.89931184407484,1.3119189009631211,0.07066221871429734,0.150746066590501,0.004710814580953156,0.22636816256202122,0.6388070207297083,10.367506993803234,0.05537706927415888,0.00322539812519333,0.0004474890457843996,1.3672958196622978e-11,0.03720981447850597,30.7189253093188,30.756135123797304,veteran,Jacob Tamme,TE,15.0,102.2,81.0,59.0,657.0,1.0,0.0,0.0,0.0,0.0,0.0,0.0,0.0,0.0,0.0,0.0,1.0,0.0,0.0,1.0,1.0,0.0,0.0,0.0,0.0,0.0,0.0,0.0,0.0,16,27.9,3.053076923076923,0.8168269230769231,0.8125,30.46406570841889,0.8125,1.0,0.9375,0.0,0.1875,0.0,3.0,13.0,28.0,14.0,109.0,2.0,0.0,0.0,0.0,0.0,0.0,0.0,0.0,,3
00-0026281,2015,veteran,TE,7.223295749835766,1.5981096401445196,11.543618571427475,7.391426675255571,81.59184948741942,0.6288532871223013,0.06559725135481789,0.13994080289027816,0.0043731500903211925,0.1232135199540576,0.640304132497125,11.038714590860533,0.054476270437315545,0.0010978990959786795,0.0002104803098679741,1.3673027291777494e-11,0.010210992362800146,15.421823950026374,15.432034942389175,veteran,Gary Barnidge,TE,16.0,200.79999999999998,125.0,79.0,1043.0,9.0,0.0,0.0,0.0,0.0,0.0,0.0,0.0,0.0,0.0,0.0,3.0,0.0,0.0,3.0,3.0,0.0,0.0,0.0,0.0,0.0,0.0,0.0,0.0,16,22.1,2.175113122171946,0.7123868778280544,0.625,29.94113620807666,0.6906249999999999,1.0,0.875,0.125,0.25,2.0,6.0,10.0,25.0,13.0,156.0,0.0,0.0,0.0,0.0,0.0,0.0,0.0,0.0,,3
00-0026931,2015,veteran,TE,1.390641553669445,0.6733611460577349,0.9364039903343665,0.6033499899655153,6.29026110832591,0.05673953444148262,0.01844377750238623,0.03933205831854134,0.0012222516568844424,0.025444431090473292,0.6443265900117257,10.425559315390778,0.06059300796147008,9.238907253179375e-05,3.7314018063259725e-05,1.3673185740603949e-11,0.00020631575747640508,1.2315161660564584,1.2317224818139347,veteran,Bear Pascoe,TE,1.0,0.0,0.0,0.0,0.0,0.0,0.0,0.0,0.0,0.0,0.0,0.0,0.0,0.0,0.0,0.0,0.0,0.0,0.0,0.0,0.0,0.0,0.0,0.0,0.0,0.0,0.0,0.0,0.0,16,7.3,1.6578512396694216,0.5945247933884298,0.125,29.519507186858316,0.37812499999999993,1.0,0.75,0.0,0.875,0.0,14.0,2.0,2.0,2.0,3.0,1.0,0.0,0.0,0.0,0.0,0.0,0.0,0.0,,3
00-0026996,2015,veteran,TE,6.423312030612894,2.7287770765735915,17.527786624815832,11.251448473706098,116.00460273321148,0.8324866125334195,0.056629366319648926,0.12080931481525103,0.003775291087976595,0.16024380596896584,0.641920666570433,10.310192772451181,0.047495250276197755,0.004248340337416126,0.0005428095988571828,1.3672940503678502e-11,0.032518368915121415,21.93534925144617,21.96786762036129,veteran,Brandon Pettigrew,TE,8.0,16.2,15.0,7.0,67.0,1.0,0.0,0.0,0.0,0.0,0.0,0.0,0.0,0.0,0.0,0.0,0.0,0.0,0.0,0.0,0.0,0.0,0.0,0.0,0.0,0.0,0.0,0.0,0.0,16,12.0,3.8972972972972975,0.7246621621621623,0.5625,30.518822724161534,0.69375,1.0,0.875,0.0625,0.375,1.0,7.0,9.0,15.0,10.0,70.0,0.0,0.0,0.0,0.0,0.0,0.0,0.0,0.0,,3
00-0027061,2015,veteran,TE,13.369343370419731,5.3740735279108645,71.84783429252329,44.27539888035239,516.3098710788278,3.5793507837033984,0.09422403506635342,0.19882420851456048,0.006213256516080015,0.29015952453819494,0.6162384616923635,11.661326247428681,0.04981849235886957,0.03943237966296263,0.002635010860727669,1.3672795630847767e-11,0.5800275714652761,94.72163416115089,95.30166173261617,veteran,Jared Cook,TE,16.0,67.6,75.0,39.0,481.0,0.0,0.0,0.0,0.0,0.0,0.0,0.0,0.0,0.0,0.0,1.0,0.0,0.0,0.0,0.0,0.0,0.0,0.0,0.0,0.0,0.0,0.0,0.0,0.0,16,107.4,7.073633440514469,0.9764871382636656,1.0,28.40246406570842,0.971875,1.0,1.0,0.0,0.0,0.0,0.0,16.0,99.0,52.0,634.0,3.0,1.0,0.0,0.0,0.0,0.0,0.0,0.0,,3
00-0027135,2015,veteran,TE,8.646340835582421,3.6353851927075653,31.432779444779094,20.536716708087546,215.34221611633274,1.5194594672439246,0.060726028951849885,0.12954886176394642,0.004048401930123326,0.14371854639575446,0.6533535077343803,10.485717808608083,0.04833996528729829,0.010906031656290801,0.001053320270229365,1.367287974632468e-11,0.10795831619852882,40.669144974106224,40.77710329030475,veteran,Brandon Myers,TE,6.0,18.7,17.0,12.0,127.0,0.0,0.0,0.0,0.0,0.0,0.0,0.0,0.0,0.0,0.0,0.0,0.0,0.0,0.0,0.0,0.0,0.0,0.0,0.0,0.0,0.0,0.0,0.0,0.0,16,30.0,5.264478764478763,0.8322876447876448,0.6875,29.99041752224504,0.8093750000000001,1.0,1.0,0.0,0.3125,0.0,5.0,11.0,32.0,22.0,190.0,0.0,0.0,0.0,0.0,0.0,0.0,0.0,0.0,,3
00-0027215,2015,veteran,TE,12.339560051862694,2.657254963397064,32.78935719394828,21.208712186803208,217.845542651431,1.8828788970734474,0.06949816855663603,0.1482627595874902,0.004633211237109068,0.380108037761201,0.6468169553112668,10.271512043384794,0.05742347695126388,0.003975821909775174,0.0005181514122298076,1.3672944763474357e-11,0.05865053424936919,42.96859320884439,43.027243743093756,veteran,,,0.0,0.0,0.0,0.0,0.0,0.0,0.0,0.0,0.0,0.0,0.0,0.0,0.0,0.0,0.0,0.0,0.0,0.0,0.0,0.0,0.0,0.0,0.0,0.0,0.0,0.0,0.0,0.0,0.0,16,18.299999999999997,2.304081632653061,0.9209183673469388,0.9375,28.511978097193705,0.91875,1.0,0.9375,0.0,0.0625,0.0,1.0,15.0,16.0,13.0,78.0,1.0,0.0,0.0,0.0,0.0,0.0,0.0,0.0,,3
00-0027321,2015,veteran,TE,13.079904965898201,3.5617678313857355,46.58758474511875,29.146079347788252,334.0451237205525,2.942898418130206,0.0705489646501069,0.15050445792022807,0.004703264310007127,0.21208081213615887,0.6256190250524214,11.461065474176769,0.06316915620826535,0.011742220593909544,0.001109713136954031,1.3672874965028974e-11,0.17535954337078064,65.25405096211037,65.42941050548114,veteran,Jeff Cumberland,TE,9.0,10.2,14.0,5.0,77.0,0.0,0.0,0.0,0.0,0.0,0.0,0.0,0.0,0.0,0.0,0.0,0.0,0.0,0.0,0.0,0.0,0.0,0.0,0.0,0.0,0.0,0.0,0.0,0.0,16,54.2,4.264189189189189,0.9328547297297297,1.0,28.334017796030118,0.925,1.0,1.0,0.0,0.0,0.0,0.0,16.0,47.0,23.0,247.0,3.0,0.0,0.0,0.0,0.0,0.0,0.0,0.0,,3
00-0027656,2015,veteran,TE,12.233067873019206,7.928228015379147,96.98655142490546,61.93831213938562,784.3165411854845,7.327948628717218,0.08625545975244281,0.18401164747187798,0.005750363983496187,0.22990281878435112,0.6386278430297946,12.662865907945038,0.07555633766802283,0.16034653987040914,0.007675167435693016,1.3672697262612122e-11,2.1023663720394428,152.96159967162401,155.06396604366347,veteran,Rob Gronkowski,TE,15.0,224.6,120.0,72.0,1176.0,11.0,0.0,0.0,0.0,0.0,0.0,0.0,0.0,0.0,0.0,0.0,5.0,0.0,0.0,5.0,5.0,0.0,0.0,0.0,0.0,0.0,0.0,0.0,0.0,16,228.4,15.279583333333335,0.8156249999999999,0.9375,26.299794661190965,0.75,1.0,0.9375,0.0,0.0625,0.0,1.0,15.0,131.0,82.0,1124.0,12.0,0.0,0.0,0.0,0.0,0.0,0.0,0.0,,3
00-0027675,2015,veteran,TE,10.559251838552981,2.4219079799328953,25.57353628991256,16.32993790022585,179.23033287618458,1.3290027006132135,0.07813619787897724,0.16669055547515144,0.005209079858598482,0.17539615956952545,0.6385482912923218,10.97556732739968,0.05196788920965289,0.0035455244769106286,0.0004781706926192096,1.3672952120784155e-11,0.04501177328797776,33.75914965697072,33.804161430258695,veteran,Ed Dickson,TE,16.0,38.6,26.0,17.0,121.0,2.0,0.0,0.0,0.0,0.0,0.0,0.0,0.0,0.0,0.0,0.0,0.0,0.0,0.0,0.0,0.0,0.0,0.0,0.0,0.0,0.0,0.0,0.0,0.0,16,22.5,2.3896153846153845,0.816826923076923,0.8125,28.10403832991102,0.8125000000000001,1.0,0.875,0.0,0.1875,0.0,3.0,13.0,17.0,10.0,115.0,1.0,0.0,0.0,0.0,0.0,0.0,0.0,0.0,,3
00-0027696,2015,veteran,TE,12.495715761578593,7.692268132194768,96.1203961417549,62.17258837135562,705.9400471273043,7.299197880079497,0.06274050661868531,0.133846414119862,0.004182700441245688,0.37429422002783924,0.6468199348623754,11.354522396763322,0.07593807530001127,0.11499186396134438,0.005875126168188819,1.3672721903380033e-11,1.547026507288423,144.76537858288899,146.3124050901774,veteran,Jimmy Graham,TE,11.0,97.5,74.0,48.0,605.0,2.0,0.0,0.0,0.0,0.0,0.0,0.0,0.0,0.0,0.0,0.0,1.0,0.0,0.0,1.0,1.0,0.0,0.0,0.0,0.0,0.0,0.0,0.0,0.0,16,188.4,13.955882352941174,0.9571078431372549,0.9375,28.76933607118412,0.95625,1.0,1.0,0.0,0.0625,0.0,1.0,15.0,124.0,85.0,889.0,10.0,0.0,0.0,0.0,0.0,0.0,0.0,0.0,,3
00-0027714,2015,veteran,TE,1.4823480796932929,3.8579704627881513,5.71885510702746,3.715480523155211,38.28680862196309,0.3003959255460164,0.014996177905791379,0.03199184619902161,0.0009997451937194253,0.02743625601830018,0.6496895713601037,10.304672136849119,0.05252728385737261,0.012138482762721453,0.0011360378553291071,1.3672872815584624e-11,0.020519461954205176,7.443121820795631,7.463641282749836,veteran,,,0.0,0.0,0.0,0.0,0.0,0.0,0.0,0.0,0.0,0.0,0.0,0.0,0.0,0.0,0.0,0.0,0.0,0.0,0.0,0.0,0.0,0.0,0.0,0.0,0.0,0.0,0.0,0.0,0.0,16,20.5,8.039047619047619,0.5732142857142857,0.1875,30.17385352498289,0.328125,1.0,1.0,0.0,0.8125,0.0,13.0,3.0,21.0,16.0,125.0,0.0,0.0,0.0,0.0,0.0,0.0,0.0,0.0,,3
00-0027718,2015,veteran,TE,7.619494127549306,3.3611241589042096,25.610065790734726,16.27994487535842,176.78109464193201,1.437615511443547,0.06968441486072875,0.14866008503622133,0.0046456276573819165,0.1597728486856639,0.6356853984048811,10.85882636553092,0.05613478400214228,0.008853457681451224,0.000909326774925598,1.3672893221177195e-11,0.07785178405303837,34.16696904761029,34.244820831663326,veteran,Garrett Graham,TE,8.0,11.0,19.0,4.0,30.0,1.0,0.0,0.0,0.0,0.0,0.0,0.0,0.0,0.0,0.0,0.0,0.0,0.0,0.0,0.0,0.0,0.0,0.0,0.0,0.0,0.0,0.0,0.0,0.0,16,34.7,5.3776785714285715,0.7120535714285714,0.625,29.075975359342916,0.7,1.0,0.875,0.25,0.125,4.0,6.0,10.0,28.0,18.0,197.0,1.0,0.0,0.0,0.0,0.0,0.0,0.0,0.0,,3
00-0027725,2015,veteran,TE,8.075517895761925,2.856644428235262,23.06888320204245,15.119169884366862,164.66868022193103,1.2298878281734622,0.07159443998530034,0.15273480530197406,0.004772962665686689,0.18490832865810317,0.6553923634685642,10.891383685833013,0.05331371342955049,0.0060601073086340865,0.0006965019974356384,1.3672917658260323e-11,0.05737542675903212,31.079874532625418,31.13724995938445,veteran,Clay Harbor,TE,10.0,29.9,20.0,14.0,149.0,1.0,0.0,0.0,0.0,0.0,0.0,0.0,0.0,0.0,0.0,0.0,0.0,0.0,0.0,0.0,0.0,0.0,0.0,0.0,0.0,0.0,0.0,0.0,0.0,16,47.9,4.21762114537445,0.7265969162995596,0.625,28.16700889801506,0.709375,1.0,0.875,0.125,0.25,2.0,6.0,10.0,35.0,26.0,289.0,1.0,0.0,0.0,0.0,0.0,0.0,0.0,0.0,,3
00-0027732,2015,veteran,TE,5.104195566108219,1.0871411574119123,5.54898107539564,3.5658576291984008,40.26400143454702,0.30762267442169927,0.06434714606156894,0.13727391159801372,0.004289809737437929,0.09096699005785562,0.6426148477978286,11.291533656546546,0.055437686710756336,0.00040254737078241,0.00010436906742726076,1.3673091539837888e-11,0.0028537608414779757,7.512597274052817,7.515451034894295,veteran,Michael Hoomanawanui,TE,10.0,29.099999999999998,16.0,11.0,76.0,3.0,1.0,0.0,0.0,0.0,0.0,0.0,0.0,0.0,0.0,1.0,0.0,0.0,0.0,0.0,0.0,0.0,0.0,0.0,0.0,0.0,0.0,0.0,0.0,16,5.9,1.6373417721518988,0.5087025316455696,0.4375,27.159479808350444,0.49375,1.0,0.625,0.0,0.5625,0.0,9.0,7.0,6.0,3.0,44.0,0.0,0.0,0.0,0.0,0.0,0.0,0.0,0.0,,3
00-0027753,2015,veteran,TE,13.368324512126538,3.7144728454800657,49.65627838985957,31.810634636623618,343.5154134832949,2.8397457131937855,0.05857439754937546,0.12495871477200099,0.003904959836625031,0.22295995670528718,0.6406165678964726,10.798760144439408,0.05718804963389477,0.011956474823814232,0.0011239772071858483,1.3672873794106892e-11,0.1823765739062276,66.88533866289038,67.0677152367966,veteran,Andrew Quarless,TE,3.0,5.1,5.0,4.0,31.0,0.0,0.0,0.0,0.0,0.0,0.0,0.0,0.0,0.0,0.0,0.0,0.0,0.0,0.0,0.0,0.0,0.0,0.0,0.0,0.0,0.0,0.0,0.0,0.0,16,64.8,4.2047244094488185,0.9424212598425196,1.0,26.902121834360027,0.7937500000000001,1.0,1.0,0.0,0.0,0.0,0.0,16.0,46.0,29.0,323.0,3.0,0.0,0.0,0.0,0.0,0.0,0.0,0.0,,3
00-0027825,2015,veteran,TE,10.317720805130696,2.358471587170327,24.334051363256894,15.87024793451752,175.84684691417692,1.3570520634757333,0.06833716190227504,0.1457859453915201,0.004555810793485003,0.21380742622694365,0.6521827252522668,11.080283536825723,0.05576761728730501,0.0035879110629007203,0.0004821703165401508,1.3672951357610225e-11,0.04448141296267089,33.27641964637703,33.3209010593397,veteran,Jim Dray,TE,11.0,9.1,16.0,6.0,61.0,0.0,0.0,0.0,0.0,0.0,0.0,0.0,0.0,0.0,0.0,0.0,0.0,0.0,0.0,0.0,0.0,0.0,0.0,0.0,0.0,0.0,0.0,0.0,0.0,16,38.7,2.8933884297520667,0.8357438016528925,0.8125,28.66803559206023,0.75625,1.0,0.9375,0.0,0.1875,0.0,3.0,13.0,27.0,17.0,242.0,1.0,0.0,0.0,0.0,0.0,0.0,0.0,0.0,,3
00-0027873,2015,veteran,TE,12.883653808210198,5.220040106497698,67.25318959708903,45.23079386474108,436.39719752070874,3.9917471090013983,0.07060638512378993,0.15062695493075184,0.004707092341585995,0.37985860521820536,0.6725449623388395,9.648232105448297,0.05935401923560479,0.0269145445651918,0.0020009281400764503,1.3672820897886023e-11,0.3854265731136646,89.489187377556,89.87461395066966,veteran,Jermaine Gresham,TE,14.0,37.3,32.0,18.0,223.0,1.0,0.0,0.0,0.0,0.0,0.0,0.0,0.0,0.0,0.0,0.0,0.0,0.0,0.0,0.0,0.0,0.0,0.0,0.0,0.0,0.0,0.0,0.0,0.0,16,107.0,7.077104377104377,0.9299242424242425,0.9375,27.208761122518823,0.928125,1.0,1.0,0.0,0.0625,0.0,1.0,15.0,79.0,62.0,460.0,5.0,0.0,0.0,0.0,0.0,0.0,0.0,0.0,,3
00-0027981,2015,veteran,TE,7.690867765503398,4.324237997964757,33.2571426289121,21.467140629208654,224.1903308488228,2.095934592214201,0.0763219094089874,0.1628200734058398,0.005088127293932493,0.1335648649017584,0.6454896281602435,10.44341837234646,0.06302208868635936,0.01732730544085922,0.001461678572779111,1.3672849704792247e-11,0.15012438001681877,45.50789199407249,45.65801637408931,veteran,Kyle Rudolph,TE,16.0,105.0,73.0,49.0,495.0,5.0,0.0,0.0,0.0,0.0,0.0,0.0,0.0,0.0,0.0,0.0,1.0,0.0,0.0,1.0,1.0,0.0,0.0,0.0,0.0,0.0,0.0,0.0,0.0,16,47.1,6.663076923076924,0.6548076923076923,0.5625,25.809719370294317,0.609375,1.0,1.0,0.4375,0.0,7.0,7.0,9.0,34.0,24.0,231.0,2.0,0.0,0.0,0.0,0.0,0.0,0.0,0.0,,3
00-0027985,2015,veteran,TE,13.601623616150622,3.856181468895385,52.450328935489864,34.327170972377075,356.8901960838049,3.8356640508726576,0.06603629355452913,0.14087742624966212,0.004402419570301941,0.21878800871952872,0.6544700799607382,10.396726149410707,0.07312945654907616,0.012714711926443125,0.001173890524415327,1.3672869810512461e-11,0.19689095200270168,75.4695156424127,75.6664065944154,veteran,Lance Kendricks,TE,14.0,49.0,40.0,25.0,245.0,2.0,0.0,0.0,0.0,0.0,0.0,0.0,0.0,0.0,0.0,0.0,0.0,0.0,0.0,0.0,0.0,0.0,0.0,0.0,0.0,0.0,0.0,0.0,0.0,16,69.4,4.733441558441559,0.965909090909091,1.0,27.586584531143053,0.9625,1.0,1.0,0.0,0.0,0.0,0.0,16.0,38.0,27.0,259.0,5.0,0.0,0.0,0.0,0.0,0.0,0.0,0.0,,3
00-0028007,2015,veteran,TE,10.091273853449085,2.9917254786645975,30.1903210995455,19.443376037921933,216.2526253772859,1.3182748089501861,0.10643939178776797,0.22575819563821672,0.0070187531676734576,0.16819061670553592,0.6440268049422847,11.122174716752458,0.043665478237329254,0.00701087020108084,0.0007716223204404446,1.3672908271619312e-11,0.08242858964654409,38.984906515549454,39.067335105196,veteran,Rob Housler,TE,5.0,5.3,7.0,4.0,33.0,0.0,0.0,0.0,0.0,0.0,0.0,0.0,0.0,0.0,0.0,0.0,0.0,0.0,0.0,0.0,0.0,0.0,0.0,0.0,0.0,0.0,0.0,0.0,0.0,16,17.5,3.1784313725490194,0.8022058823529412,0.75,27.457905544147845,0.796875,1.0,0.9375,0.0,0.25,0.0,4.0,12.0,17.0,9.0,129.0,0.0,1.0,1.0,0.0,0.0,0.0,0.0,0.0,,3
00-0028040,2015,veteran,TE,8.857399694799337,5.007074520993334,44.34966033408389,28.00435674344837,338.32928932442195,2.4183536409359343,0.06914227803073461,0.14750352646556716,0.004609485202048974,0.14893433728130473,0.6314446724618153,12.08130907715187,0.054529248312582115,0.03819754980620346,0.0025749205630811426,1.3672797748907374e-11,0.3725416171521111,62.08976773907823,62.46230935623034,veteran,Jordan Cameron,TE,16.0,74.1,70.0,35.0,386.0,3.0,0.0,0.0,0.0,0.0,0.0,0.0,0.0,0.0,0.0,0.0,0.0,0.0,0.0,0.0,0.0,0.0,0.0,0.0,0.0,0.0,0.0,0.0,0.0,16,67.4,7.898347107438017,0.784607438016529,0.625,27.066392881587955,0.75625,1.0,0.9375,0.25,0.125,4.0,6.0,10.0,48.0,24.0,424.0,2.0,0.0,0.0,0.0,0.0,0.0,0.0,0.0,,3
00-0028067,2015,veteran,TE,9.91721773963131,5.807826257337687,57.59747758796583,38.01300245640528,428.0555076218614,5.88961671928946,0.06934787802362695,0.1479421397837375,0.004623191868241797,0.16974817777472595,0.6599768609371803,11.260765526552955,0.10225476819352956,0.05432132273325222,0.003329873192541987,1.3672774133855801e-11,0.5882510019653385,96.85278931576391,97.44104031772925,veteran,Julius Thomas,TE,12.0,99.5,80.0,46.0,455.0,5.0,0.0,0.0,0.0,0.0,0.0,0.0,0.0,0.0,0.0,0.0,1.0,0.0,0.0,1.0,1.0,0.0,0.0,0.0,0.0,0.0,0.0,0.0,0.0,16,143.4,12.450000000000003,0.798611111111111,0.75,27.17864476386037,0.675,1.0,0.875,0.0,0.25,0.0,4.0,12.0,62.0,43.0,489.0,12.0,0.0,0.0,0.0,0.0,0.0,0.0,0.0,,3
00-0028093,2015,veteran,TE,13.794250334010554,3.5444394430034256,48.89288497053019,32.07596698976293,376.4866581727651,2.354630948006682,0.08559576542380587,0.1818021059566445,0.005689316412350008,0.3202715873438784,0.6560457009050801,11.737343983828175,0.048158969335229805,0.0142772627216037,0.0012742021159489587,1.3672862292307572e-11,0.22330913088874083,67.22620793458009,67.44951706546883,veteran,,,0.0,0.0,0.0,0.0,0.0,0.0,0.0,0.0,0.0,0.0,0.0,0.0,0.0,0.0,0.0,0.0,0.0,0.0,0.0,0.0,0.0,0.0,0.0,0.0,0.0,0.0,0.0,0.0,0.0,16,74.2,3.1880546075085325,0.9251279863481228,1.0,26.06160164271047,0.915625,1.0,1.0,0.0,0.0,0.0,0.0,16.0,52.0,39.0,507.0,1.0,0.0,0.0,0.0,0.0,0.0,0.0,0.0,,3
00-0028112,2015,veteran,TE,12.340782394325199,5.617866255734106,69.32886498243708,45.37173452943693,487.7385533214501,3.6372456649532423,0.1927344742441504,0.4112408647499946,0.013440855849400123,0.20103312749404875,0.6544421943288823,10.749832651978691,0.05246365515827581,0.04216179803874124,0.0027662952674589792,1.3672791166193313e-11,0.5715169471883028,93.00289955316623,93.57441650035453,veteran,Charles Clay,TE,13.0,97.3,77.0,51.0,528.0,3.0,0.0,0.0,0.0,0.0,0.0,0.0,0.0,0.0,0.0,0.0,1.0,0.0,0.0,1.0,1.0,0.0,0.0,0.0,0.0,0.0,0.0,0.0,0.0,16,108.5,7.7837370242214545,0.9080882352941178,0.875,26.546201232032853,0.903125,1.0,1.0,0.125,0.0,2.0,2.0,14.0,84.0,58.0,605.0,3.0,0.0,0.0,0.0,0.0,0.0,0.0,0.0,,3
00-0028838,2015,veteran,TE,12.948601936804248,4.496983624321628,58.22965086766803,37.986145778372226,396.6750908867246,3.4981928215648055,0.06426677297393493,0.1371024490110612,0.004284451531595662,0.5951406562480023,0.6523505673200594,10.442625403511597,0.06007579934687835,0.020049653275954458,0.0016214655847879922,1.367284018950957e-11,0.2911085482128367,78.4988745488421,78.78998309705493,veteran,Larry Donnell,TE,8.0,48.8,41.0,29.0,223.0,2.0,0.0,0.0,0.0,0.0,0.0,0.0,0.0,0.0,0.0,0.0,0.0,0.0,0.0,0.0,0.0,0.0,0.0,0.0,0.0,0.0,0.0,0.0,0.0,16,121.8,6.104464285714285,0.8928571428571428,1.0,26.830937713894592,0.7000000000000001,1.0,1.0,0.0,0.0,0.0,0.0,16.0,92.0,63.0,623.0,6.0,0.0,0.0,0.0,0.0,0.0,0.0,0.0,,3
00-0028958,2015,veteran,TE,8.96537657578831,2.159301907974018,19.358954745805267,12.575074660016643,131.78977707168622,1.2221133019834425,0.09152306193018049,0.19524919878438504,0.0061015374620120326,0.1559152033867783,0.6495740511373133,10.48023814051151,0.0631290954512021,0.002335863897481465,0.00035697020744809805,1.3672978901430293e-11,0.025742458220040936,26.543498586954552,26.569241045174593,veteran,Cory Harkey,TE,9.0,5.1,6.0,5.0,26.0,0.0,0.0,0.0,0.0,0.0,0.0,0.0,0.0,0.0,0.0,0.0,0.0,0.0,0.0,0.0,0.0,0.0,0.0,0.0,0.0,0.0,0.0,0.0,0.0,16,17.5,1.9642487046632122,0.6408678756476685,0.6875,25.207392197125255,0.603125,1.0,0.6875,0.0,0.3125,0.0,5.0,11.0,11.0,8.0,55.0,1.0,0.0,0.0,0.0,0.0,0.0,0.0,0.0,,3
00-0029275,2015,veteran,TE,8.771633527634194,3.112910004825216,27.305305766832785,17.757511467725166,214.5203731343196,1.480312918853584,0.07565964585575546,0.16140724449227833,0.005043976390383698,0.15180705882411155,0.6503319032337981,12.080542564999444,0.054213380047612975,0.010337099258051107,0.0010142487910730072,1.367288321143602e-11,0.10401817472197833,38.95546102555936,39.05947920028134,veteran,Ladarius Green,TE,13.0,89.4,63.0,37.0,429.0,4.0,0.0,0.0,0.0,0.0,0.0,0.0,0.0,0.0,0.0,0.0,0.0,0.0,0.0,0.0,0.0,0.0,0.0,0.0,0.0,0.0,0.0,0.0,0.0,16,32.1,3.8025000000000007,0.7150000000000001,0.625,25.259411362080765,0.625,1.0,0.875,0.0,0.375,0.0,6.0,10.0,25.0,19.0,226.0,0.0,0.0,0.0,0.0,0.0,0.0,0.0,0.0,,3
00-0029391,2015,veteran,TE,3.4055971803547607,2.3790373952293034,8.10204304515145,5.229192619437299,57.88105074891087,0.46495504252131853,0.013870984196889442,0.029591432953364142,0.0009247322797926294,0.06428106311602551,0.6454165437403635,11.068831263503794,0.05738738240838699,0.0035589748589097783,0.0004794414034031063,1.3672951877628651e-11,0.01456961127494818,11.072377050479691,11.08694666175464,veteran,,,0.0,0.0,0.0,0.0,0.0,0.0,0.0,0.0,0.0,0.0,0.0,0.0,0.0,0.0,0.0,0.0,0.0,0.0,0.0,0.0,0.0,0.0,0.0,0.0,0.0,0.0,0.0,0.0,0.0,16,0.0,4.246153846153846,0.8125,0.0,27.745379876796715,0.24375,0.0,0.8125,0.0,1.0,0.0,16.0,0.0,0.0,0.0,0.0,0.0,0.0,0.0,0.0,0.0,0.0,0.0,0.0,,3
00-0029432,2015,veteran,TE,7.8930959843912625,2.999107606475938,23.672244205432516,15.320591931733174,169.4607255707558,1.2009954744155713,0.08520569416100525,0.18177214754347787,0.005680379610733683,0.1406707824256193,0.6471964296573651,11.060977691061392,0.05073433105847887,0.007049182929247521,0.000774584903692093,1.3672907920417588e-11,0.06481068717727943,31.58325929700311,31.64806998418039,veteran,,,0.0,0.0,0.0,0.0,0.0,0.0,0.0,0.0,0.0,0.0,0.0,0.0,0.0,0.0,0.0,0.0,0.0,0.0,0.0,0.0,0.0,0.0,0.0,0.0,0.0,0.0,0.0,0.0,0.0,16,43.3,3.7284810126582277,0.5870253164556962,0.625,25.11978097193703,0.49375,1.0,0.625,0.0,0.375,0.0,6.0,10.0,35.0,23.0,258.0,1.0,0.0,0.0,0.0,0.0,0.0,0.0,0.0,,3
00-0029534,2015,veteran,TE,5.496270409504435,2.297569127738384,12.628061210579395,8.02366137592187,92.7661346190812,0.7792203752617635,0.06315210161703969,0.13472448344968466,0.0042101401078026455,0.10298924342729253,0.6353834719457884,11.561571491222477,0.061705463908343826,0.003487607224668567,0.00047268262701183057,1.3672953178419325e-11,0.023065819843118146,17.796521203576837,17.819587023419956,veteran,Cooper Helfet,TE,7.0,19.5,22.0,13.0,130.0,0.0,0.0,0.0,0.0,0.0,0.0,0.0,0.0,0.0,0.0,0.0,0.0,0.0,0.0,0.0,0.0,0.0,0.0,0.0,0.0,0.0,0.0,0.0,0.0,16,36.5,4.5625,0.5,0.5,26.247775496235455,0.275,1.0,0.5,0.25,0.25,4.0,8.0,8.0,24.0,12.0,185.0,2.0,0.0,0.0,0.0,0.0,0.0,0.0,0.0,,3
00-0029587,2015,veteran,TE,11.194321308161928,2.310346212095431,25.86275783129108,16.807897698676637,184.08210796620907,1.4519743541620322,0.08740193782233421,0.18645746735431298,0.005826795854822281,0.18951711834022586,0.6498880671705064,10.952119727662472,0.05614151296754995,0.003233200265523631,0.00044824724643695573,1.3672958041520931e-11,0.043720218485196145,35.19857805611534,35.242298274600536,veteran,Rhett Ellison,TE,12.0,23.9,19.0,11.0,124.0,1.0,0.0,0.0,0.0,0.0,0.0,0.0,0.0,0.0,0.0,0.0,0.0,0.0,0.0,0.0,0.0,0.0,0.0,0.0,0.0,0.0,0.0,0.0,0.0,16,38.3,2.3228448275862066,0.7764008620689655,0.875,26.910335386721425,0.7250000000000001,1.0,0.875,0.0,0.125,0.0,2.0,14.0,26.0,19.0,208.0,1.0,0.0,0.0,0.0,0.0,0.0,0.0,0.0,,3
00-0029634,2015,veteran,TE,8.869607434124058,1.6239009429815845,14.403363876150529,9.359449003213257,99.81335467354512,0.7583842332176731,0.0905110306149168,0.19309019864515584,0.00603406870766112,0.15265596823792077,0.6498099391011624,10.664447729698352,0.05265327181474779,0.0010862832897276934,0.00020892042189081913,1.3673027973140401e-11,0.012414469775396985,18.96156686390182,18.973981333677216,veteran,James Hanna,TE,10.0,12.4,14.0,9.0,79.0,0.0,0.0,0.0,0.0,0.0,0.0,0.0,0.0,0.0,0.0,0.0,0.0,0.0,0.0,0.0,0.0,0.0,0.0,0.0,0.0,0.0,0.0,0.0,0.0,16,6.800000000000001,0.925,0.6532451923076924,0.6875,26.132785763175907,0.65,1.0,0.6875,0.0,0.3125,0.0,5.0,11.0,6.0,4.0,48.0,0.0,0.0,0.0,0.0,0.0,0.0,0.0,0.0,,3
00-0029689,2015,veteran,TE,10.083337888882104,4.583392716401462,46.215897436917125,29.503551881336218,343.946522046424,3.77014182096358,0.10346790654038288,0.22030084494640492,0.0068363334351095395,0.17658227783803787,0.6383853504436953,11.657800505843591,0.08157673073664046,0.027471774463005152,0.0020305375666857415,1.3672819549961126e-11,0.3077190791648202,71.47716260052123,71.78488167968605,veteran,Dwayne Allen,TE,13.0,25.0,29.0,16.0,109.0,1.0,1.0,1.0,0.0,0.0,0.0,0.0,0.0,0.0,0.0,0.0,0.0,0.0,0.0,0.0,0.0,0.0,0.0,0.0,0.0,0.0,0.0,0.0,0.0,16,102.0,7.936065573770491,0.7735655737704917,0.75,25.516769336071185,0.571875,1.0,0.9375,0.1875,0.0625,3.0,4.0,12.0,50.0,29.0,395.0,8.0,0.0,0.0,0.0,0.0,0.0,0.0,0.0,,3
00-0029697,2015,veteran,TE,13.845721727260521,5.743488849075468,79.52274834792273,49.414719678910856,606.1376160732174,5.095061604117493,0.0656616053831384,0.14007809148402858,0.004377440358875893,0.22271443259134643,0.6213909944700956,12.266337237402237,0.06407049190284411,0.05656229561535337,0.0034306103740165627,1.3672771395261876e-11,0.8543947206137792,115.4863346576011,116.34072937821489,veteran,Coby Fleener,TE,15.0,96.1,84.0,54.0,491.0,3.0,0.0,0.0,0.0,0.0,0.0,0.0,0.0,0.0,0.0,0.0,0.0,0.0,0.0,0.0,0.0,0.0,0.0,0.0,0.0,0.0,0.0,0.0,0.0,16,152.9,8.233766233766234,0.9707792207792207,1.0,26.94592744695414,0.9625000000000001,1.0,1.0,0.0,0.0,0.0,0.0,16.0,92.0,51.0,774.0,8.0,0.0,0.0,0.0,0.0,0.0,0.0,0.0,,3
00-0029883,2015,veteran,TE,5.404156118857147,2.605008016271611,14.077870010806144,8.98564505503024,99.81755927937431,1.0612855317710572,0.053793672082788103,0.11475983377661463,0.003586244805519207,0.09727116012824949,0.6382815758444195,11.108558002020745,0.07538679721835878,0.00453662610705527,0.0005683921153482741,1.3672936283928207e-11,0.029124155475295482,20.68074277803317,20.709866933508465,veteran,,,0.0,0.0,0.0,0.0,0.0,0.0,0.0,0.0,0.0,0.0,0.0,0.0,0.0,0.0,0.0,0.0,0.0,0.0,0.0,0.0,0.0,0.0,0.0,0.0,0.0,0.0,0.0,0.0,0.0,16,18.4,4.476388888888889,0.6119791666666666,0.375,25.623545516769337,0.45,1.0,0.8125,0.3125,0.3125,5.0,10.0,6.0,12.0,6.0,74.0,1.0,0.0,0.0,0.0,0.0,0.0,0.0,0.0,,3
00-0029910,2015,veteran,TE,11.308043936238949,4.5110189796537545,51.01080081913245,33.864615332131095,360.44101777319236,3.936031044116417,0.12873974703437985,0.2687880001996066,0.008439183679736471,0.19209839633267414,0.6638714701265699,10.643588129914537,0.07716073813607222,0.022525823770320065,0.0017617838214689563,1.367283257609903e-11,0.2846064984929698,76.2859128175163,76.57051931600928,veteran,Timothy Wright,TE,8.0,24.2,16.0,9.0,77.0,2.0,0.0,0.0,0.0,0.0,0.0,0.0,0.0,0.0,0.0,0.0,0.0,0.0,0.0,0.0,0.0,0.0,0.0,0.0,0.0,0.0,0.0,0.0,0.0,16,74.7,6.640969162995594,0.8356277533039647,0.8125,25.401779603011637,0.7093750000000001,1.0,0.875,0.0,0.1875,0.0,3.0,13.0,33.0,26.0,259.0,6.0,1.0,-2.0,0.0,0.0,0.0,0.0,0.0,,3
00-0030061,2015,veteran,TE,14.222249030312103,5.7517457200411775,81.80275998945743,52.86275152644952,611.1175893052788,4.257039293359988,0.053543730210860785,0.11422662444983633,0.0035695820140573854,0.3358648309581166,0.6462221022036709,11.560457442316642,0.05204028927518614,0.05362672555705561,0.0032984753776144275,1.367277500432253e-11,0.8330602533027403,112.44648094652565,113.2795411998284,veteran,Zach Ertz,TE,15.0,136.3,112.0,75.0,853.0,2.0,0.0,0.0,0.0,0.0,0.0,0.0,0.0,0.0,0.0,1.0,3.5,0.0,0.0,3.5,2.0,1.0,0.0,0.0,0.0,0.0,0.0,0.0,0.0,16,116.2,6.810526315789473,0.9788533834586466,1.0,24.80766598220397,0.83125,1.0,1.0,0.0,0.0,0.0,0.0,16.0,89.0,58.0,702.0,3.0,0.0,0.0,0.0,0.0,0.0,0.0,0.0,,3
00-0030089,2015,veteran,TE,11.09274578417785,3.6143108921848532,40.09263191199162,25.584312122315346,313.64584095969104,2.400464582529199,0.07504845936953801,0.16010337998834775,0.005003230624635867,0.1892178170961866,0.6381300229547449,12.259303258191586,0.05987296089212904,0.015841514460826253,0.0013715998677871985,1.367285553803882e-11,0.19854810603012493,58.227121739856244,58.42566984588637,veteran,Luke Willson,TE,13.0,35.8,26.0,17.0,213.0,1.0,0.0,0.0,0.0,0.0,0.0,0.0,0.0,0.0,0.0,0.0,0.0,0.0,0.0,0.0,0.0,0.0,0.0,0.0,0.0,0.0,0.0,0.0,0.0,16,66.2,4.467873303167421,0.8125,0.8125,25.626283367556468,0.690625,1.0,0.8125,0.0,0.1875,0.0,3.0,13.0,40.0,22.0,362.0,3.0,0.0,0.0,0.0,0.0,0.0,0.0,0.0,,3
00-0030108,2015,veteran,TE,8.181641153905788,2.3744641133444726,19.427013308211556,12.54272432522236,137.5567850823483,1.105827175410652,0.07947080962952918,0.16953772720966226,0.005298053975301946,0.1439815563138636,0.6456331771760668,10.967057994389084,0.056922140210983053,0.003448564688341629,0.00046896785041510773,1.3672953901303228e-11,0.03397030899699903,26.42278270725497,26.45675301625197,veteran,Ryan Griffin,TE,9.0,47.1,34.0,20.0,251.0,2.0,0.0,0.0,0.0,0.0,0.0,0.0,0.0,0.0,0.0,0.0,0.0,0.0,0.0,0.0,0.0,0.0,0.0,0.0,0.0,0.0,0.0,0.0,0.0,16,20.1,2.6164772727272725,0.6484374999999999,0.625,25.637234770704996,0.55,1.0,0.6875,0.0,0.375,0.0,6.0,10.0,16.0,10.0,91.0,1.0,0.0,0.0,0.0,0.0,0.0,0.0,0.0,,3
00-0030181,2015,veteran,TE,8.576376243684884,2.2311409647183917,19.135104366122988,12.56085512017474,125.26222903155697,1.168980549415133,0.08670293903934133,0.18496626995059484,0.005780195935956089,0.15295602845516396,0.6564299248042056,9.972428455954867,0.061090889657477374,0.002292795167842427,0.00035234931807252417,1.3672980095043152e-11,0.024196694725142173,25.567799505434333,25.591996200159475,veteran,Jack Doyle,TE,10.0,19.200000000000003,14.0,12.0,72.0,1.0,0.0,0.0,0.0,0.0,0.0,0.0,0.0,0.0,0.0,0.0,0.0,0.0,0.0,0.0,0.0,0.0,0.0,0.0,0.0,0.0,0.0,0.0,0.0,16,32.8,2.4662420382165604,0.6158439490445861,0.6875,25.32511978097194,0.49062500000000003,1.0,0.6875,0.0,0.3125,0.0,5.0,11.0,22.0,18.0,118.0,2.0,0.0,0.0,0.0,0.0,0.0,0.0,0.0,,3
00-0030216,2015,veteran,TE,11.420010997710547,2.7957342146797894,31.927315478318853,20.67247777455124,228.92844406564691,2.572616700859559,0.10338880444454915,0.2143142347929422,0.0068514780944035234,0.19901782286867678,0.6474856236688447,11.074068941434211,0.08057729446769701,0.005764613567045742,0.0006724698065470445,1.3672920876056558e-11,0.07735136952509691,48.32928814530602,48.40663951483112,veteran,Josh Hill,TE,14.0,32.0,30.0,16.0,120.0,2.0,0.0,0.0,0.0,0.0,0.0,0.0,0.0,0.0,0.0,0.0,0.0,0.0,0.0,0.0,0.0,0.0,0.0,0.0,0.0,0.0,0.0,0.0,0.0,16,54.6,3.558947368421053,0.7802631578947369,0.875,25.281314168377822,0.59375,1.0,0.875,0.0,0.125,0.0,2.0,14.0,20.0,14.0,176.0,5.0,0.0,0.0,0.0,0.0,0.0,0.0,0.0,,3
00-0030422,2015,veteran,TE,11.645682788041531,3.391622983580731,39.49776540341218,25.536067383072997,280.1517771595908,2.3312867838521556,0.08172578443978645,0.1743483401382111,0.005448385629319097,0.20210660603535277,0.6465192934906377,10.970826985884836,0.05902325764613401,0.00984776510182935,0.0009801511614073552,1.367288634619476e-11,0.13180574313063115,54.41684404632753,54.54864978945817,veteran,Dion Sims,TE,13.0,25.700000000000003,25.0,18.0,127.0,1.0,0.0,0.0,0.0,0.0,0.0,0.0,0.0,0.0,0.0,1.0,0.0,0.0,0.0,0.0,0.0,0.0,0.0,0.0,0.0,0.0,0.0,0.0,0.0,16,52.4,3.3142857142857145,0.78125,0.875,24.53388090349076,0.6125,1.0,0.875,0.125,0.0,2.0,2.0,14.0,36.0,24.0,284.0,2.0,0.0,0.0,0.0,0.0,0.0,0.0,0.0,,3
00-0030443,2015,veteran,TE,12.89394493510295,4.035671145970169,52.03572153232317,33.293266943171766,325.16048891585365,2.932480077135147,0.07577813459543137,0.16166002047025357,0.005051875639695424,0.3125731493241126,0.6398156105607355,9.766553984349738,0.05635513433427786,0.011313577803829753,0.001080952804990029,1.3672877372355343e-11,0.1667832684916582,66.17889378321911,66.34567705171077,veteran,Levine Toilolo,TE,11.0,9.9,12.0,7.0,44.0,0.0,0.0,0.0,0.0,0.0,0.0,0.0,0.0,0.0,0.0,0.0,0.0,0.0,0.0,0.0,0.0,0.0,0.0,0.0,0.0,0.0,0.0,0.0,0.0,16,49.3,3.0235555555555558,0.8541666666666666,0.9375,24.09034907597536,0.703125,1.0,0.9375,0.0,0.0625,0.0,1.0,15.0,53.0,31.0,238.0,2.0,0.0,0.0,0.0,0.0,0.0,0.0,0.0,,3
00-0030470,2015,veteran,TE,3.3260874180111237,1.523664378166003,5.0678409174896855,3.190277834567101,35.99359898947779,0.2650527672588457,0.04180802683774905,0.08919045725386464,0.00278720178918327,0.08736388942753741,0.6295142026966741,11.282277236008154,0.05230092490553896,0.0009722635960011093,0.00019333129337014576,1.3673035076275792e-11,0.004198388978184348,6.6357298973898144,6.639928286367999,veteran,Vance McDonald,TE,14.0,65.6,46.0,30.0,326.0,3.0,0.0,0.0,0.0,0.0,0.0,0.0,0.0,0.0,0.0,0.0,0.0,0.0,0.0,0.0,0.0,0.0,0.0,0.0,0.0,0.0,0.0,0.0,0.0,16,2.0,1.1288461538461536,0.4663461538461538,0.25,25.218343600273784,0.325,1.0,0.625,0.0625,0.6875,1.0,12.0,4.0,8.0,2.0,30.0,0.0,0.0,0.0,0.0,0.0,0.0,0.0,0.0,,3
00-0030472,2015,veteran,TE,8.900534436000417,5.166278347598264,45.98263833876168,30.861623124232604,320.8074254739483,1.9661161750913465,0.10672708661908868,0.2377842711818265,0.007072702890595673,0.22291323092454232,0.671158164019862,10.395027642666328,0.042757793944023924,0.032267424370775524,0.0022794462549194042,1.3672808937937853e-11,0.31762975684690076,58.92863934267188,59.24626909951878,veteran,Jordan Reed,TE,14.0,202.7,114.0,87.0,952.0,11.0,0.0,0.0,0.0,0.0,0.0,0.0,0.0,0.0,0.0,2.0,2.0,0.0,0.0,2.0,2.0,0.0,0.0,0.0,0.0,0.0,0.0,0.0,0.0,16,70.5,7.626857142857143,0.6489285714285715,0.6875,25.163586584531142,0.546875,1.0,0.6875,0.25,0.0625,4.0,5.0,11.0,65.0,50.0,465.0,0.0,0.0,0.0,0.0,0.0,0.0,0.0,0.0,,3
00-0030506,2015,veteran,TE,13.458037580812864,5.739161508447403,77.23785126303979,51.783472002113484,608.8025791673548,4.484616425188635,0.021277364541882712,0.04539171102268312,0.0014184909694588475,0.5368278334240714,0.6704416442886358,11.756696792028684,0.05806241825547307,0.062095718100246944,0.0036759777903592012,1.3672765046535178e-11,0.9098936790420334,112.61908691899492,113.52898059803695,veteran,Travis Kelce,TE,16.0,154.5,103.0,72.0,875.0,5.0,0.0,0.0,0.0,0.0,0.0,0.0,0.0,0.0,0.0,2.0,1.0,0.0,0.0,1.0,1.0,0.0,0.0,0.0,0.0,0.0,0.0,0.0,0.0,16,150.7,9.41875,1.0,1.0,25.905544147843944,0.55,1.0,1.0,0.0,0.0,0.0,0.0,16.0,87.0,67.0,862.0,5.0,0.0,0.0,0.0,0.0,0.0,0.0,0.0,,3
00-0030514,2015,veteran,TE,14.325349517032691,5.766488013454043,82.60695627850868,52.215654800780605,534.6912319762639,4.401997007878526,0.04854287856515568,0.10355814093899877,0.0032361919043437117,0.33701937671089316,0.6320975515032409,10.240056052467056,0.05328845421972974,0.035719310500979116,0.0024529004855217374,1.3672802205917655e-11,0.5643995930040744,105.34466685738603,105.9090664503901,veteran,Mychal Rivera,TE,15.0,50.0,46.0,32.0,280.0,1.0,0.0,0.0,0.0,0.0,0.0,0.0,0.0,0.0,0.0,0.0,0.0,0.0,0.0,0.0,0.0,0.0,0.0,0.0,0.0,0.0,0.0,0.0,0.0,16,105.4,6.108823529411765,1.0,1.0,24.980150581793293,0.8500000000000001,1.0,1.0,0.0,0.0,0.0,0.0,16.0,99.0,58.0,534.0,4.0,0.0,0.0,0.0,0.0,0.0,0.0,0.0,,3
00-0030544,2015,veteran,TE,9.945898750436317,2.7481227371486407,27.3325504974523,17.65151804446376,198.50043181955985,2.1865857453391473,0.08763792625095487,0.1869609093353704,0.005842528416730325,0.17381154756670686,0.6458057416233103,11.245516182774871,0.07999933067142642,0.005690586252816022,0.0006663933479075302,1.3672921707869993e-11,0.06653981612249081,41.50144484252326,41.567984658645756,veteran,Gavin Escobar,TE,8.0,14.4,13.0,8.0,64.0,1.0,0.0,0.0,0.0,0.0,0.0,0.0,0.0,0.0,0.0,1.0,0.0,0.0,0.0,0.0,0.0,0.0,0.0,0.0,0.0,0.0,0.0,0.0,0.0,16,39.0,3.270967741935484,0.6955645161290323,0.75,24.57494866529774,0.58125,1.0,0.75,0.0,0.25,0.0,4.0,12.0,13.0,9.0,105.0,4.0,0.0,0.0,0.0,0.0,0.0,0.0,0.0,,3
00-0030549,2015,veteran,TE,3.4598940622413252,3.8018049848844835,13.153842493001296,8.541723666508751,94.66969455443306,0.702729182299355,0.013213260682101428,0.028188289455149715,0.0008808840454734286,0.06422326201035129,0.6493709857825579,11.0832073537597,0.05342387083266756,0.014383730739985846,0.001280922167889019,1.3672861809990407e-11,0.0564139671790771,17.833863991691466,17.89027795887054,veteran,Tyler Eifert,TE,13.0,166.5,74.0,52.0,615.0,13.0,0.0,0.0,0.0,0.0,0.0,0.0,0.0,0.0,0.0,0.0,1.0,0.0,0.0,1.0,1.0,0.0,0.0,0.0,0.0,0.0,0.0,0.0,0.0,16,5.2,5.08118811881188,0.8422029702970297,0.0625,24.980150581793293,0.315625,1.0,0.9375,0.0,0.9375,0.0,15.0,1.0,3.0,3.0,37.0,0.0,0.0,0.0,0.0,0.0,0.0,0.0,0.0,,3
00-0030780,2015,veteran,TE,5.932616740824227,1.8300570248834729,10.857026942486671,7.01414609521907,75.1353145980536,0.5788683905374501,0.11808549535008467,0.24917480060683878,0.007786712518963712,0.1111655111846411,0.6460466693483736,10.71196886664034,0.05331739467940081,0.0015214149676268912,0.00026443471980993537,1.3673006388540676e-11,0.011379156837316638,14.343121583444779,14.354500740282095,veteran,Ryan Hewitt,TE,9.0,13.9,12.0,8.0,99.0,0.0,0.0,0.0,0.0,0.0,0.0,0.0,0.0,0.0,0.0,0.0,0.0,0.0,0.0,0.0,0.0,0.0,0.0,0.0,0.0,0.0,0.0,0.0,0.0,16,13.6,1.7,0.5,0.5,24.602327173169062,0.275,1.0,0.5,0.0,0.5,0.0,8.0,8.0,15.0,10.0,86.0,0.0,1.0,0.0,0.0,0.0,0.0,0.0,0.0,,3
00-0030992,2015,veteran,TE,7.0882454058904685,2.419266358566183,17.14835365173211,11.078636761509548,123.0405148190419,1.0140688256969013,0.07266422416646094,0.15501701155511668,0.004844281611097396,0.13176395131953428,0.6460466693483736,11.106106055080797,0.05913505437849849,0.0037846677037642073,0.0005005570156456028,1.367294792872048e-11,0.032148760107667367,23.708822305023396,23.740971065131063,veteran,Crockett Gillmore,TE,10.0,82.7,47.0,33.0,412.0,4.0,0.0,0.0,0.0,0.0,0.0,0.0,0.0,0.0,0.0,0.0,1.0,0.0,0.0,1.0,1.0,0.0,0.0,0.0,0.0,0.0,0.0,0.0,0.0,16,23.1,2.566666666666667,0.5625,0.5625,23.79192334017796,0.309375,1.0,0.5625,0.0,0.4375,0.0,7.0,9.0,15.0,10.0,121.0,1.0,0.0,0.0,0.0,0.0,0.0,0.0,0.0,,3
00-0031042,2015,veteran,TE,12.113730933563259,4.812114378933387,58.292658807929925,38.173730185478554,394.3924647458129,3.1038289179781824,0.04916066338010263,0.10487608187755228,0.0032773775586735087,0.2165011741057998,0.654863424762597,10.33151496669407,0.05324562271563342,0.023969534401617764,0.0018416951644426003,1.3672828506462664e-11,0.32382519020079703,76.74623460051785,77.07005979071864,veteran,,,0.0,0.0,0.0,0.0,0.0,0.0,0.0,0.0,0.0,0.0,0.0,0.0,0.0,0.0,0.0,0.0,0.0,0.0,0.0,0.0,0.0,0.0,0.0,0.0,0.0,0.0,0.0,0.0,0.0,16,65.5,4.678571428571429,0.875,0.875,23.1813826146475,0.48125000000000007,1.0,0.875,0.125,0.0,2.0,2.0,14.0,53.0,38.0,345.0,2.0,0.0,0.0,0.0,0.0,0.0,0.0,0.0,,3
00-0031299,2015,veteran,TE,14.088407235831355,7.432127971294548,104.70684548841072,67.67748697024724,800.1759228126266,6.893914177896046,0.02227398866820345,0.04751784249216736,0.00148493257788023,0.24792957325317735,0.6463520761661948,11.823369315772679,0.06584014775480067,0.11665293053075593,0.005941695208437173,1.3672720865466386e-11,1.769017523607164,154.7376230669727,156.50664059057988,veteran,Jordan Matthews,TE,16.0,193.7,128.0,85.0,997.0,8.0,0.0,0.0,0.0,0.0,0.0,0.0,0.0,0.0,0.0,1.0,5.5,0.0,0.0,5.5,4.0,1.0,0.0,0.0,0.0,0.0,0.0,0.0,0.0,16,171.7,10.73125,1.0,1.0,23.12662559890486,0.55,1.0,1.0,0.0,0.0,0.0,0.0,16.0,103.0,67.0,872.0,8.0,0.0,0.0,0.0,0.0,0.0,0.0,0.0,,3
00-0031384,2015,veteran,TE,11.054345594789531,3.596052629789106,39.75200854674051,25.715163375003296,283.3009966078571,2.374216811017442,0.05855355892267781,0.124914259035046,0.0039035705948451873,0.1991119716639247,0.6468896620599017,11.016884959138268,0.05972570689669258,0.011863336162415071,0.0011177854062050304,1.3672874300551356e-11,0.14967599742029364,55.07067112053674,55.22034711795703,veteran,Richard Rodgers,TE,16.0,132.1,85.0,58.0,510.0,8.0,1.0,11.0,0.0,0.0,0.0,0.0,0.0,0.0,0.0,0.0,1.0,0.0,0.0,1.0,1.0,0.0,0.0,0.0,0.0,0.0,0.0,0.0,0.0,16,44.5,3.423076923076923,0.8125,0.8125,23.60848733744011,0.446875,1.0,0.8125,0.0,0.1875,0.0,3.0,13.0,30.0,20.0,225.0,2.0,0.0,0.0,0.0,0.0,0.0,0.0,0.0,,3
00-0031387,2015,veteran,TE,10.26968418591408,4.65781625194446,47.83430190348762,30.195872252560193,323.1766258055841,2.388673661327195,0.06711755762159852,0.14318412292607682,0.004474503841439901,0.1864316967210023,0.6312598083585411,10.702675620777379,0.04993641730460868,0.021695079009403005,0.001715188957478487,1.367283503495667e-11,0.24922328346456088,61.41594271670092,61.66516600016548,veteran,Eric Ebron,TE,14.0,107.2,70.0,47.0,537.0,5.0,0.0,0.0,0.0,0.0,0.0,0.0,0.0,0.0,0.0,0.0,0.0,0.0,0.0,0.0,0.0,0.0,0.0,0.0,0.0,0.0,0.0,0.0,0.0,16,43.3,3.6083333333333325,0.75,0.75,22.392881587953458,0.41250000000000003,1.0,0.75,0.1875,0.0625,3.0,4.0,12.0,47.0,25.0,248.0,1.0,0.0,0.0,0.0,0.0,0.0,0.0,0.0,,3
00-0031418,2015,veteran,TE,7.243156285073734,4.238591204555789,30.700778523136513,19.516887258959947,212.06819335340012,1.7587700193625972,0.07425227285922235,0.15840484876634103,0.004950151523948157,0.1909015022515657,0.635713105589546,10.865881968757204,0.057287472955683025,0.017552308455598364,0.0014751314838609634,1.3672848864564293e-11,0.14316102532374583,41.18162147051276,41.3247824958365,veteran,Austin Seferian-Jenkins,TE,7.0,69.3,39.0,21.0,338.0,4.0,0.0,0.0,0.0,0.0,0.0,0.0,0.0,0.0,0.0,0.0,1.0,0.0,0.0,1.0,1.0,0.0,0.0,0.0,0.0,0.0,0.0,0.0,0.0,16,42.6,4.733333333333333,0.5625,0.5625,22.921286789869953,0.309375,1.0,0.5625,0.125,0.3125,2.0,7.0,9.0,38.0,21.0,221.0,2.0,0.0,0.0,0.0,0.0,0.0,0.0,0.0,,3
00-0031558,2015,rookie,TE,11.079416287655762,2.3837247587468986,26.41027891734869,17.011603146050227,186.04678689285316,1.3158146079817854,0.2022174916755034,1.1627505771341446,0.0,0.05770529316487376,0.6441281138790036,10.93646408839779,0.0498220640569395,0.0034361934737905412,0.00046778817448755235,1.3672954132062295e-11,0.04584524812341328,35.006232381584816,35.05207762970823,rookie,Maxx Williams,TE,14.0,48.8,48.0,32.0,268.0,1.0,0.0,0.0,0.0,0.0,0.0,0.0,0.0,0.0,0.0,0.0,0.0,0.0,0.0,0.0,0.0,0.0,0.0,0.0,0.0,0.0,0.0,0.0,0.0,16,0.0,,,0.0,21.388090349075977,0.0,0.0,0.0,0.0,1.0,0.0,16.0,0.0,0.0,0.0,0.0,0.0,0.0,0.0,0.0,0.0,0.0,0.0,0.0,,3
00-0032062,2015,rookie,TE,4.904798063781107,2.665180281414293,13.07217108390841,8.420152904581574,92.08669985977473,0.6512825451057571,0.16162057940974323,0.9293183316060235,0.0,0.02554582324885993,0.6441281138790036,10.93646408839779,0.0498220640569395,0.0047585567242300125,0.0005877610811155769,1.3672933213485538e-11,0.027664034060454243,17.368281895565683,17.395945929626137,rookie,Blake Bell,TE,9.0,26.099999999999998,25.0,15.0,186.0,0.0,0.0,0.0,0.0,0.0,0.0,0.0,0.0,0.0,0.0,0.0,0.0,0.0,0.0,0.0,0.0,0.0,0.0,0.0,0.0,0.0,0.0,0.0,0.0,16,0.0,,,0.0,24.0684462696783,0.0,0.0,0.0,0.0,1.0,0.0,16.0,0.0,0.0,0.0,0.0,0.0,0.0,0.0,0.0,0.0,0.0,0.0,0.0,,3
00-0032214,2015,rookie,TE,7.603085598105536,2.5222355067808784,19.176772456636115,12.352298272779848,135.09046646943486,0.9554263857398776,0.20221190652114754,1.1627184624965983,0.0,0.03959940415679966,0.6441281138790036,10.93646408839779,0.0498220640569395,0.00405091551715371,0.0005249945219392516,1.3672943561321367e-11,0.036786825068787665,25.454827135708737,25.491613960777524,rookie,Tyler Kroft,TE,12.0,24.4,15.0,11.0,129.0,1.0,0.0,0.0,0.0,0.0,0.0,0.0,0.0,0.0,0.0,0.0,0.0,0.0,0.0,0.0,0.0,0.0,0.0,0.0,0.0,0.0,0.0,0.0,0.0,16,0.0,,,0.0,22.87748117727584,0.0,0.0,0.0,0.0,1.0,0.0,16.0,0.0,0.0,0.0,0.0,0.0,0.0,0.0,0.0,0.0,0.0,0.0,0.0,,3
00-0032227,2015,rookie,TE,7.541661647641395,2.3868408777863355,18.000746307023928,11.594786767157762,126.80596909165077,0.8968343355812632,0.20524967649926698,1.180185639870785,0.0,0.039279487748132266,0.6441281138790036,10.93646408839779,0.0498220640569395,0.0034492826448225353,0.0004690362737454166,1.3672953887936592e-11,0.031319292156154435,23.89845589472235,23.929775186878505,rookie,,,0.0,0.0,0.0,0.0,0.0,0.0,0.0,0.0,0.0,0.0,0.0,0.0,0.0,0.0,0.0,0.0,0.0,0.0,0.0,0.0,0.0,0.0,0.0,0.0,0.0,0.0,0.0,0.0,0.0,16,0.0,,,0.0,22.767967145790553,0.0,0.0,0.0,0.0,1.0,0.0,16.0,0.0,0.0,0.0,0.0,0.0,0.0,0.0,0.0,0.0,0.0,0.0,0.0,,3
00-0032256,2015,rookie,TE,6.760798143062682,3.189806860090677,21.565640296429653,13.891035208732267,151.91880771096973,1.074444712277634,0.1788024413628955,1.0281140378366491,0.0,0.035212490328451466,0.6441281138790036,10.93646408839779,0.0498220640569395,0.008058770348703725,0.0008510645252869988,1.3672899290440214e-11,0.06311453298704447,28.616453072255673,28.679567605242717,rookie,Clive Walford,TE,15.0,64.9,50.0,28.0,329.0,3.0,0.0,0.0,0.0,0.0,0.0,0.0,0.0,0.0,0.0,0.0,0.0,0.0,0.0,0.0,0.0,0.0,0.0,0.0,0.0,0.0,0.0,0.0,0.0,16,0.0,,,0.0,23.863107460643395,0.0,0.0,0.0,0.0,1.0,0.0,16.0,0.0,0.0,0.0,0.0,0.0,0.0,0.0,0.0,0.0,0.0,0.0,0.0,,3
