player_id,season,entry,position,proj_games,proj_tpg,proj_targets,proj_receptions,proj_rec_yards,proj_rec_tds,proj_carries,proj_rush_yards,proj_rush_tds,proj_fumbles_lost,proj_catch_rate,proj_ypr,proj_td_per_target,p_rec_100,p_rec_150,p_rec_200,proj_bonus_points,proj_points_base,proj_points,entry_act,name,position_act,games,points,targets,receptions,rec_yards,rec_tds,carries,rush_yards,rush_tds,attempts,completions,pass_yards,pass_tds,interceptions,sacks,fumbles_lost,rec_bonus,rush_bonus,pass_bonus,total_bonus,g100,g150,g200,r100,r150,r200,p300,p350,p400,season_len,pts_1,ppg_w,gshare_w,gshare_1,age,evidence,present_1,gshare_max3,inj_missed_share_1,unexp_missed_share_1,inj_out_wks_1,missed_wks_1,games_1,tgt_1,rec_1,recyds_1,rectd_1,carries_1,rushyds_1,rushtd_1,att_1,passyds_1,passtd_1,ints_1,average_pick,n_train_seasons
00-0011754,2014,veteran,WR,0.32892313447425536,1.8985853187657435,0.6244886341152317,0.36329134300839666,4.847865729740651,0.02850449744677211,0.0448218717358022,0.25032334450324906,6.79816513215583e-05,0.008343645328617732,0.5817421217330939,13.344291910717518,0.04564454161308629,0.01261464869759805,0.000573308802787688,0.00035390064928677667,0.004664923804269209,0.8462121628599149,0.850877086664184,veteran,,,0.0,0.0,0.0,0.0,0.0,0.0,0.0,0.0,0.0,0.0,0.0,0.0,0.0,0.0,0.0,0.0,0.0,0.0,0.0,0.0,0.0,0.0,0.0,0.0,0.0,0.0,0.0,0.0,0.0,16,0.0,4.7124999999999995,1.0,0.0,37.54688569472964,0.3,0.0,1.0,0.0,1.0,0.0,16.0,0.0,0.0,0.0,0.0,0.0,0.0,0.0,0.0,0.0,0.0,0.0,0.0,,2
00-0015754,2014,veteran,WR,1.8220104111579083,2.9183682135025713,5.3172972685939905,3.361545971963594,40.87759474400607,0.24019127605172438,0.10858597639176859,0.6064361822450758,0.00016469312189789249,0.0443078316574645,0.6321907168550048,12.160355706849984,0.045171684771206366,0.0281709269175022,0.0019933389608498306,0.0008557981737578203,0.059894095009983536,7.1826962303337165,7.2425903253437,veteran,,,0.0,0.0,0.0,0.0,0.0,0.0,0.0,0.0,0.0,0.0,0.0,0.0,0.0,0.0,0.0,0.0,0.0,0.0,0.0,0.0,0.0,0.0,0.0,0.0,0.0,0.0,0.0,0.0,0.0,16,18.0,5.403846153846154,0.6346153846153847,0.375,38.19028062970568,0.4875,1.0,0.875,0.0625,0.5625,1.0,10.0,6.0,21.0,13.0,115.0,0.0,0.0,0.0,0.0,0.0,0.0,0.0,0.0,,2
00-0020337,2014,veteran,WR,8.655817786835073,6.902760350870461,59.74903582332445,34.48296479554786,464.15844173258347,2.434782997675338,0.7609565970767415,4.867556162623668,0.00014292466194732104,0.252985650449183,0.5771300627764543,13.460514328875561,0.04075016381644878,0.14191659137345117,0.027537488155818936,0.005570308599209687,1.682374528035569,78.24766642042,79.93004094845557,veteran,Steve Smith,WR,16.0,184.0,134.0,79.0,1065.0,6.0,0.0,0.0,0.0,0.0,0.0,0.0,0.0,0.0,0.0,1.0,4.0,0.0,0.0,4.0,4.0,0.0,0.0,0.0,0.0,0.0,0.0,0.0,0.0,16,130.5,10.492233009708736,0.966626213592233,0.9375,35.30732375085558,0.9656250000000001,1.0,1.0,0.0625,0.0,1.0,1.0,15.0,110.0,64.0,745.0,4.0,0.0,0.0,0.0,0.0,0.0,0.0,0.0,,2
00-0020494,2014,veteran,WR,8.998405960051407,3.743739196543141,33.68768509905187,19.262918238798846,237.0666731901192,1.5790036499274471,0.9063786551205725,5.40325121132455,0.0,0.3506043736670779,0.5718089023380534,12.306892977027019,0.04687183596274734,0.03829608877784347,0.0032286859525754654,0.0012048377643831495,0.4098665325232292,42.651264711774324,43.061131244297556,veteran,Santana Moss,WR,5.0,16.6,15.0,10.0,116.0,0.0,0.0,0.0,0.0,0.0,0.0,0.0,0.0,0.0,0.0,0.0,0.0,0.0,0.0,0.0,0.0,0.0,0.0,0.0,0.0,0.0,0.0,0.0,0.0,16,76.7,6.204870129870129,0.9707792207792207,1.0,35.252566735112936,0.9625000000000001,1.0,1.0,0.0,0.0,0.0,0.0,16.0,78.0,42.0,452.0,2.0,3.0,25.0,0.0,0.0,0.0,0.0,0.0,,2
00-0020498,2014,veteran,WR,4.28840970267624,7.833324271598602,33.59250381053273,19.67172395691567,250.67192457065198,1.2792948814546592,0.35435897077284595,1.7733736201365873,0.0002956180425659139,0.11612346821621677,0.5855986224744497,12.742753259432929,0.03808274871888364,0.1645005804798834,0.03561214460657479,0.00671476244525721,0.9921163899645368,42.52568785808761,43.517804248052144,veteran,Reggie Wayne,WR,15.0,120.9,116.0,64.0,779.0,2.0,0.0,0.0,0.0,0.0,0.0,0.0,0.0,0.0,0.0,1.0,1.0,0.0,0.0,1.0,1.0,0.0,0.0,0.0,0.0,0.0,0.0,0.0,0.0,16,84.8,12.44027149321267,0.8040158371040724,0.4375,35.78918548939083,0.690625,1.0,1.0,0.0,0.5625,0.0,9.0,7.0,58.0,38.0,503.0,2.0,1.0,5.0,0.0,0.0,0.0,0.0,0.0,,2
00-0021192,2014,veteran,WR,0.0,2.572336779594588,0.0,0.0,0.0,0.0,0.0,0.0,0.0,0.0,0.580163074334158,12.645842386607068,0.04314846843477042,4.396936773659166e-05,1.018363142125799e-07,7.812257651769079e-07,0.0,0.0,0.0,veteran,,,0.0,0.0,0.0,0.0,0.0,0.0,0.0,0.0,0.0,0.0,0.0,0.0,0.0,0.0,0.0,0.0,0.0,0.0,0.0,0.0,0.0,0.0,0.0,0.0,0.0,0.0,0.0,0.0,0.0,16,0.0,5.3968750000000005,0.6992187500000001,0.0,35.123887748117724,0.3,0.0,0.875,0.0,1.0,0.0,16.0,0.0,0.0,0.0,0.0,0.0,0.0,0.0,0.0,0.0,0.0,0.0,0.0,,2
00-0021931,2014,veteran,WR,2.1216403655644456,2.3650173822509126,5.017716343445095,3.0179939219882814,38.35836394356101,0.21613323052133887,0.2506067460674714,1.399600605714489,0.00038009703232408376,0.05213599772574019,0.601467623001616,12.709887738372307,0.04307402326631816,0.018632243749241086,0.0010475014692483862,0.0005424094687166211,0.04516614818663098,6.679601385792188,6.724767533978819,veteran,,,0.0,0.0,0.0,0.0,0.0,0.0,0.0,0.0,0.0,0.0,0.0,0.0,0.0,0.0,0.0,0.0,0.0,0.0,0.0,0.0,0.0,0.0,0.0,0.0,0.0,0.0,0.0,0.0,0.0,16,0.0,5.3936170212765955,0.9800531914893617,0.0,33.07597535934291,0.440625,0.0,1.0,0.0,1.0,0.0,16.0,0.0,0.0,0.0,0.0,0.0,0.0,0.0,0.0,0.0,0.0,0.0,0.0,,2
00-0021999,2014,veteran,WR,4.677329162205925,4.454714559644196,20.836166319127123,13.366306624771132,156.8980428052842,0.827558044743351,0.87553085046642,4.316340110050677,0.0,0.12076445760406443,0.6414954853043753,11.738324371110313,0.03971738524584879,0.06051506311833115,0.006691840880087453,0.002022096192562957,0.3489148022025354,27.528410957171033,27.87732575937357,veteran,,,0.0,0.0,0.0,0.0,0.0,0.0,0.0,0.0,0.0,0.0,0.0,0.0,0.0,0.0,0.0,0.0,0.0,0.0,0.0,0.0,0.0,0.0,0.0,0.0,0.0,0.0,0.0,0.0,0.0,16,71.8,8.450273224043714,0.6403688524590163,0.5625,33.034907597535934,0.571875,1.0,1.0,0.4375,0.0,7.0,7.0,9.0,54.0,39.0,461.0,1.0,2.0,-8.0,0.0,0.0,0.0,0.0,0.0,,2
00-0022044,2014,veteran,WR,9.52538133575736,9.20995074179394,87.72829289912863,54.49332587847448,713.2929357594628,3.146482263981751,0.6340588385213063,3.5779894414738656,0.0008800512070284534,0.21120887353405832,0.621160221835523,13.089546733671144,0.035866220121251256,0.24545907856576568,0.07349475149420133,0.011484325255366018,3.60697478178349,117.39551160339548,121.00248638517897,veteran,Andre Johnson,WR,15.0,149.1,147.0,85.0,936.0,3.0,0.0,0.0,0.0,0.0,0.0,0.0,0.0,0.0,0.0,3.0,1.0,0.0,0.0,1.0,1.0,0.0,0.0,0.0,0.0,0.0,0.0,0.0,0.0,16,236.2,14.848122866894196,0.9596843003412968,1.0,33.14168377823409,0.9156250000000001,1.0,1.0,0.0,0.0,0.0,0.0,16.0,181.0,109.0,1407.0,5.0,0.0,0.0,0.0,0.0,0.0,0.0,0.0,,2
00-0022084,2014,veteran,WR,9.422564763984912,7.488403843766535,70.55997019676373,43.2180193706027,584.0074755465943,3.1276959892345797,0.7705312923907653,4.17031424714697,0.0003443228638334544,0.2068926218185688,0.6125005332355556,13.513055064801087,0.04432677593985199,0.181452102163283,0.04236060212093225,0.007623693029835825,2.452131942212299,98.78124529362881,101.23337723584112,veteran,Anquan Boldin,WR,16.0,179.1,131.0,83.0,1062.0,5.0,1.0,4.0,0.0,1.0,0.0,0.0,0.0,0.0,0.0,0.0,1.0,0.0,0.0,1.0,1.0,0.0,0.0,0.0,0.0,0.0,0.0,0.0,0.0,16,209.0,11.75974025974026,0.9646915584415585,1.0,33.91101984941821,0.9625,1.0,1.0,0.0,0.0,0.0,0.0,16.0,129.0,85.0,1179.0,7.0,2.0,11.0,0.0,0.0,0.0,0.0,0.0,,2
00-0022097,2014,veteran,WR,2.090700310391039,6.038115189027907,12.623889299877492,7.075848710945508,90.12436901097247,0.5159772288539004,0.2469521273695977,1.3791901154804296,0.0003745540461789147,0.051375694201949595,0.5605125760263262,12.736898807850519,0.040873079333712765,0.09625612375023013,0.014281882140903812,0.0034729277720397236,0.2605531132810164,15.68363957711462,15.944192690395637,veteran,Brandon Lloyd,WR,12.0,42.4,35.0,14.0,294.0,1.0,0.0,0.0,0.0,0.0,0.0,0.0,0.0,0.0,0.0,0.0,0.0,0.0,0.0,0.0,0.0,0.0,0.0,0.0,0.0,0.0,0.0,0.0,0.0,16,0.0,10.357446808510637,0.9800531914893617,0.0,33.158110882956876,0.440625,0.0,1.0,0.0,1.0,0.0,16.0,0.0,0.0,0.0,0.0,0.0,0.0,0.0,0.0,0.0,0.0,0.0,0.0,,2
00-0022414,2014,veteran,WR,2.4904585778566926,5.0798358454943795,12.651120755515382,7.70985010865119,111.66271393553538,0.5813716064434643,0.1957708581418996,1.0933505020765806,0.0002969270514978122,0.06115639457701976,0.6094203239100381,14.483123843126227,0.04595415834522088,0.10336262790211574,0.0160811636009977,0.0037811000274420815,0.3363278970308206,18.498229909902523,18.834557806933343,veteran,Malcom Floyd,WR,16.0,148.6,92.0,52.0,856.0,6.0,0.0,0.0,0.0,0.0,0.0,0.0,0.0,0.0,0.0,0.0,1.0,0.0,0.0,1.0,1.0,0.0,0.0,0.0,0.0,0.0,0.0,0.0,0.0,16,18.9,10.419718309859153,0.727112676056338,0.125,32.98015058179329,0.44375000000000003,1.0,0.875,0.125,0.75,2.0,14.0,2.0,11.0,6.0,149.0,0.0,0.0,0.0,0.0,0.0,0.0,0.0,0.0,,2
00-0022427,2014,veteran,WR,8.18765976606781,8.642643556442756,70.76302491955157,45.96493416205499,534.9169300045468,3.6339936359288263,0.6390061233770661,3.900758648828989,0.00037274746118688885,0.2677408761320384,0.6495614653883323,11.637500189136176,0.051354413410961565,0.19784553917778933,0.04946583743008189,0.008545638299227753,2.367343689159588,98.13495249444108,100.50229618360066,veteran,Wes Welker,WR,14.0,82.9,64.0,49.0,464.0,2.0,0.0,0.0,0.0,0.0,0.0,0.0,0.0,0.0,0.0,0.0,0.0,0.0,0.0,0.0,0.0,0.0,0.0,0.0,0.0,0.0,0.0,0.0,0.0,16,172.3,14.550174216027877,0.9065766550522648,0.8125,33.33607118412046,0.896875,1.0,1.0,0.1875,0.0,3.0,3.0,13.0,111.0,73.0,778.0,10.0,0.0,0.0,0.0,0.0,0.0,0.0,0.0,,2
00-0022781,2014,veteran,WR,2.0458517322348158,2.7315550111449767,5.588356551245642,3.302930523647339,41.06607649651589,0.23998339346663217,0.2308601010615055,1.2893185931794475,0.0003501471555434161,0.058925161453034815,0.5910379005632913,12.433224435846656,0.042943464910652485,0.022763554336018968,0.0014296004020442974,0.0006761388319089806,0.05372454235953905,7.211155691620187,7.264880233979726,veteran,,,0.0,0.0,0.0,0.0,0.0,0.0,0.0,0.0,0.0,0.0,0.0,0.0,0.0,0.0,0.0,0.0,0.0,0.0,0.0,0.0,0.0,0.0,0.0,0.0,0.0,0.0,0.0,0.0,0.0,16,0.0,5.4511627906976745,0.9200581395348837,0.0,32.205338809034906,0.40312499999999996,0.0,1.0,0.0,1.0,0.0,16.0,0.0,0.0,0.0,0.0,0.0,0.0,0.0,0.0,0.0,0.0,0.0,0.0,,2
00-0022811,2014,veteran,WR,8.7805731036756,3.515277533819912,30.866151365414215,18.438608634587588,237.03047571556726,1.8129060595947537,0.6035476862974813,2.7511984173922603,0.0005714333973524283,0.19805565529735375,0.5973731035106699,12.855117238669504,0.058734438191932484,0.040115337885778896,0.0034742612458861623,0.0012691793636640258,0.42028290852954164,43.682225377947674,44.10250828647722,veteran,Jerricho Cotchery,WR,15.0,90.0,78.0,48.0,580.0,1.0,0.0,0.0,0.0,0.0,0.0,0.0,0.0,0.0,0.0,0.0,0.0,0.0,0.0,0.0,0.0,0.0,0.0,0.0,0.0,0.0,0.0,0.0,0.0,16,143.7,7.0662921348314605,0.8518258426966292,0.9375,32.21081451060917,0.834375,1.0,0.9375,0.0,0.0625,0.0,1.0,15.0,76.0,46.0,602.0,10.0,1.0,-5.0,0.0,0.0,0.0,0.0,0.0,,2
00-0022921,2014,veteran,WR,10.86313905538557,7.533855109287515,81.84131567531733,45.89113457042604,569.2259364460491,3.9609692841100848,0.8460649143624112,4.469786121101921,0.0005528167796703249,0.3087930758521495,0.560733099068035,12.403832282082638,0.048398162363666404,0.1363311026429911,0.025698114549857723,0.005298519099302165,2.014844112836024,103.46668599556234,105.48153010839837,veteran,Larry Fitzgerald,WR,14.0,123.39999999999999,104.0,63.0,784.0,2.0,0.0,0.0,0.0,0.0,0.0,0.0,0.0,0.0,0.0,1.0,3.5,0.0,0.0,3.5,2.0,1.0,0.0,0.0,0.0,0.0,0.0,0.0,0.0,16,197.2,11.6321875,1.0,1.0,31.003422313483917,1.0,1.0,1.0,0.0,0.0,0.0,0.0,16.0,134.0,82.0,954.0,10.0,2.0,8.0,0.0,1.0,0.0,0.0,0.0,,2
00-0022929,2014,veteran,WR,2.1008048002092146,1.5529780074998947,3.2625036527751203,1.8592172784900345,24.774622254585893,0.13872385218038694,0.2722931826687056,1.6412354662946986,0.0003108410182819907,0.051841159194876404,0.5698743898443039,13.325296909195375,0.04252067336764112,0.008271401558825067,0.0002995717129590849,0.00022347130808941595,0.019259551831611252,4.301720252135336,4.320979803966948,veteran,,,0.0,0.0,0.0,0.0,0.0,0.0,0.0,0.0,0.0,0.0,0.0,0.0,0.0,0.0,0.0,0.0,0.0,0.0,0.0,0.0,0.0,0.0,0.0,0.0,0.0,0.0,0.0,0.0,0.0,16,0.0,4.066666666666666,0.9375,0.0,32.435318275154,0.421875,0.0,0.9375,0.0,1.0,0.0,16.0,0.0,0.0,0.0,0.0,0.0,0.0,0.0,0.0,0.0,0.0,0.0,0.0,,2
00-0023310,2014,veteran,WR,8.789237851563225,4.643747096737831,40.81499775573498,25.848171298254837,342.18992375193454,1.945234732175669,0.4846214727023449,2.7065373034843834,0.0007350288308882747,0.2569588293547369,0.6333008139054196,13.238457754070897,0.047659802502435296,0.0798681403262877,0.010498879703064552,0.002787219645803016,0.8893908812405718,58.57563266199918,59.46502354323975,veteran,Lance Moore,WR,11.0,40.8,26.0,14.0,198.0,2.0,0.0,0.0,0.0,0.0,0.0,0.0,0.0,0.0,0.0,0.0,0.0,0.0,0.0,0.0,0.0,0.0,0.0,0.0,0.0,0.0,0.0,0.0,0.0,16,74.2,8.356,0.8629545454545454,0.8125,31.003422313483917,0.859375,1.0,0.9375,0.0625,0.125,1.0,3.0,13.0,54.0,37.0,457.0,2.0,0.0,0.0,0.0,0.0,0.0,0.0,0.0,,2
00-0023367,2014,veteran,WR,10.859589582529509,5.800907922565967,62.995479245110275,35.827425409307,511.45882093608986,2.6217702678982002,0.7148443537926039,3.8688862199587972,0.016637649897196835,0.2365943470754163,0.5687301031539963,14.275623076260084,0.04161838753058939,0.11291439961015227,0.01865150513836754,0.0042057442243212135,1.6213708864030958,84.8037422328799,86.425113119283,veteran,Nate Washington,WR,16.0,97.7,72.0,40.0,647.0,2.0,0.0,0.0,0.0,0.0,0.0,0.0,0.0,0.0,0.0,0.0,1.0,0.0,0.0,1.0,1.0,0.0,0.0,0.0,0.0,0.0,0.0,0.0,0.0,16,141.9,8.955937500000001,1.0,1.0,31.01163586584531,1.0,1.0,1.0,0.0,0.0,0.0,0.0,16.0,104.0,58.0,919.0,3.0,0.0,0.0,0.0,0.0,0.0,0.0,0.0,,2
00-0023438,2014,veteran,WR,0.094784863739509,1.8216726928524871,0.17266699797000742,0.09738380763135723,1.2321756737055969,0.007309337855555941,0.0069692386274350085,0.038922138998208455,1.0570293742743959e-05,0.002430317809455292,0.5639978037278032,12.652777742784014,0.042331991298218935,0.009940595323953772,0.0003973142851251292,0.00027294736553593827,0.001050449601537341,0.21486049836294066,0.215910947964478,veteran,,,0.0,0.0,0.0,0.0,0.0,0.0,0.0,0.0,0.0,0.0,0.0,0.0,0.0,0.0,0.0,0.0,0.0,0.0,0.0,0.0,0.0,0.0,0.0,0.0,0.0,0.0,0.0,0.0,0.0,16,0.0,3.533333333333333,0.5625,0.0,31.526351813826146,0.253125,0.0,0.5625,0.0,1.0,0.0,16.0,0.0,0.0,0.0,0.0,0.0,0.0,0.0,0.0,0.0,0.0,0.0,0.0,,2
00-0023462,2014,veteran,WR,8.378912437353247,7.4348941795608985,62.296327311528074,38.40949643993255,486.0937457798131,2.6232209902680648,0.48495856973070567,2.7084199391774835,0.0007355401083462674,0.24312154976343123,0.616561169775811,12.655561536454933,0.04210875830849553,0.1624131540698644,0.03482236588344078,0.006605850812147168,1.9092056195823968,83.34246087459694,85.25166649417933,veteran,Roddy White,WR,14.0,174.1,125.0,80.0,921.0,7.0,0.0,0.0,0.0,0.0,0.0,0.0,0.0,0.0,0.0,1.0,2.0,0.0,0.0,2.0,2.0,0.0,0.0,0.0,0.0,0.0,0.0,0.0,0.0,16,120.6,11.926829268292682,0.9065766550522648,0.8125,32.82956878850103,0.896875,1.0,1.0,0.125,0.0625,2.0,3.0,13.0,97.0,63.0,711.0,3.0,0.0,0.0,0.0,0.0,0.0,0.0,0.0,,2
00-0023496,2014,veteran,WR,10.597294869779944,8.751990795792288,92.7474271606109,48.44264614092252,745.7663911864186,4.325158030685986,0.8093872281740915,4.746282125707802,0.0005865997414631062,0.23087981745781888,0.5223071693086893,15.394831839221583,0.04663372519429678,0.2228603118709488,0.06144429907871036,0.010038890765752661,3.5512016439940104,124.76529854932295,128.31650019331695,veteran,Vincent Jackson,WR,16.0,149.7,142.0,70.0,1002.0,2.0,0.0,0.0,0.0,0.0,0.0,0.0,0.0,0.0,0.0,1.0,4.5,0.0,0.0,4.5,3.0,1.0,0.0,0.0,0.0,0.0,0.0,0.0,0.0,16,210.4,13.537187500000002,1.0,1.0,31.630390143737166,1.0,1.0,1.0,0.0,0.0,0.0,0.0,16.0,160.0,78.0,1224.0,7.0,1.0,0.0,0.0,0.0,0.0,0.0,0.0,,2
00-0023921,2014,veteran,WR,7.940585563653922,4.480626853976373,35.57880091280488,19.908436407375206,252.9601571465086,1.507228452564928,0.4830074481769332,2.589052068623696,0.0006100248005238542,0.21139747006641335,0.5595589479298646,12.70617902733928,0.0423631042614051,0.05491325443795887,0.0057253187327807485,0.0018097460381493247,0.532977856887382,44.13337504926073,44.66635290614811,veteran,Miles Austin,WR,12.0,92.3,72.0,47.0,568.0,2.0,0.0,0.0,0.0,0.0,0.0,0.0,0.0,0.0,0.0,0.0,0.0,0.0,0.0,0.0,0.0,0.0,0.0,0.0,0.0,0.0,0.0,0.0,0.0,16,36.4,7.078137651821862,0.8013663967611336,0.6875,30.171115674195757,0.7718750000000001,1.0,1.0,0.25,0.0625,4.0,5.0,11.0,49.0,24.0,244.0,0.0,0.0,0.0,0.0,0.0,0.0,0.0,0.0,,2
00-0023968,2014,veteran,WR,9.317105099006408,0.6991624362956999,6.514169900244408,4.016357330275659,49.20333719562279,0.28510703257412623,0.4535911302328624,2.533237554785188,0.0006879648899939031,0.21555350690789798,0.6165570428436274,12.25073696125682,0.043767208553069696,0.001925660260123342,3.225024400525232e-05,4.610042840669989e-05,0.01925134247099639,8.465499111147551,8.484750453618547,veteran,Micheal Spurlock,WR,1.0,1.3,3.0,1.0,8.0,0.0,0.0,0.0,0.0,0.0,0.0,0.0,0.0,0.0,0.0,0.0,0.0,0.0,0.0,0.0,0.0,0.0,0.0,0.0,0.0,0.0,0.0,0.0,0.0,16,0.0,1.3270742358078602,0.7218886462882096,0.6875,,0.7156250000000001,1.0,0.8125,0.0,0.3125,0.0,5.0,11.0,0.0,0.0,0.0,0.0,0.0,0.0,0.0,0.0,0.0,0.0,0.0,,2
00-0024240,2014,veteran,WR,6.193822983193556,4.776030991060699,29.581890520876453,15.067899956283187,213.62631744441433,1.2283940144331644,0.42731696211289416,2.4893082869560272,0.0004878111098137478,0.18419402767190554,0.5093623054838063,14.177577370716081,0.04152520318355805,0.06375375423364625,0.00727863457961921,0.002146750348820221,0.4890965127549038,36.150415449192685,36.63951196194759,veteran,Santonio Holmes,WR,7.0,10.7,14.0,8.0,67.0,0.0,0.0,0.0,0.0,0.0,0.0,0.0,0.0,0.0,0.0,0.0,0.0,0.0,0.0,0.0,0.0,0.0,0.0,0.0,0.0,0.0,0.0,0.0,0.0,16,65.6,7.657142857142857,0.6744505494505494,0.625,30.496919917864478,0.56875,1.0,1.0,0.3125,0.0625,5.0,6.0,10.0,59.0,23.0,456.0,1.0,0.0,0.0,0.0,0.0,0.0,0.0,0.0,,2
00-0024267,2014,veteran,WR,9.071284271304474,6.289842729920492,57.05695142490656,35.40143565636803,430.2002718576928,2.6512099775207703,0.5304697536526501,2.9625929875230677,0.000804567244358118,0.20666093241167693,0.6204578893942546,12.152057222580694,0.046466029314763936,0.11431848731040471,0.019044087826709362,0.004269183351583217,1.3736009489809125,76.515769716473,77.88937066545391,veteran,Greg Jennings,WR,16.0,139.7,92.0,59.0,742.0,6.0,0.0,0.0,0.0,0.0,0.0,0.0,0.0,0.0,0.0,0.0,0.0,0.0,0.0,0.0,0.0,0.0,0.0,0.0,0.0,0.0,0.0,0.0,0.0,16,140.9,10.252777777777778,0.8348214285714285,0.9375,30.94592744695414,0.7875,1.0,0.9375,0.0,0.0625,0.0,1.0,15.0,105.0,68.0,804.0,4.0,0.0,0.0,0.0,0.0,0.0,0.0,0.0,,2
00-0024272,2014,veteran,WR,10.368277200152484,0.8576109955425211,8.891948531683594,5.07754068376004,64.26545267943352,0.3736589846679484,0.7948962983504242,3.8106616507888598,0.0005476121046458445,0.295823005216841,0.5710267739031394,12.656807041444212,0.04202217133134936,0.002547649967767868,4.9435268337735004e-05,6.238446020307025e-05,0.02847721767589576,10.999975345104142,11.028452562780037,veteran,Devin Hester,WR,16.0,95.0,59.0,38.0,504.0,2.0,6.0,36.0,1.0,0.0,0.0,0.0,0.0,0.0,0.0,1.0,0.0,0.0,0.0,0.0,0.0,0.0,0.0,0.0,0.0,0.0,0.0,0.0,0.0,16,4.0,1.6487261146496812,0.9820859872611465,1.0,31.824777549623544,0.9812500000000001,1.0,1.0,0.0,0.0,0.0,0.0,16.0,0.0,0.0,0.0,0.0,0.0,0.0,0.0,0.0,0.0,0.0,0.0,,2
00-0024297,2014,veteran,WR,1.6369814338161426,1.5740901637873166,2.576756373272448,1.4984762311832887,19.06019157729343,0.10617376508506783,0.14507500460005543,0.810221861536014,0.0002200362902363279,0.04143587864039125,0.5815358590848241,12.71971565557789,0.04120442513943547,0.008075413595320543,0.00028874665833261416,0.00021772146016394328,0.01464112348014004,3.291770510445631,3.306411633925771,veteran,Derek Hagan,WR,11.0,40.9,34.0,19.0,254.0,1.0,0.0,0.0,0.0,0.0,0.0,0.0,0.0,0.0,0.0,0.0,0.0,0.0,0.0,0.0,0.0,0.0,0.0,0.0,0.0,0.0,0.0,0.0,0.0,16,0.0,3.4848484848484853,0.6988636363636364,0.0,29.94387405886379,0.30937499999999996,0.0,0.75,0.0,1.0,0.0,16.0,0.0,0.0,0.0,0.0,0.0,0.0,0.0,0.0,0.0,0.0,0.0,0.0,,2
00-0024318,2014,veteran,WR,4.999251471509641,0.9731473349509927,4.865008246249436,2.905371353760207,36.48326146257705,0.21940607985110483,1.3888161408805417,7.814681671836542,0.048237157572336535,0.11875810827208332,0.5971976216073291,12.557176698035335,0.04509880944605814,0.003410361286020415,7.717253221109682e-05,8.551818231629836e-05,0.018483014817912917,7.250823198317944,7.269306213135857,veteran,Brad Smith,WR,8.0,7.6,3.0,1.0,11.0,0.0,0.0,0.0,0.0,0.0,0.0,0.0,0.0,0.0,0.0,0.0,0.0,0.0,0.0,0.0,0.0,0.0,0.0,0.0,0.0,0.0,0.0,0.0,0.0,16,3.9,2.843684210526316,0.756578947368421,0.3125,30.72142368240931,0.59375,1.0,0.9375,0.0,0.6875,0.0,11.0,5.0,2.0,2.0,27.0,0.0,2.0,2.0,0.0,1.0,0.0,0.0,0.0,,2
00-0024324,2014,veteran,WR,9.81545703592629,3.995324382627173,39.215934822265744,22.973530200664918,284.0683861290814,1.3948165446513334,0.5707492411424566,3.187547806071425,0.0008656594292200871,0.31900356177283046,0.5858213072003876,12.365029825536332,0.03556759646232874,0.04579276715873031,0.004285152826722243,0.001473004851382165,0.5414844704622045,47.94844459478539,48.489929065247594,veteran,Jason Avant,WR,15.0,58.4,62.0,34.0,353.0,1.0,1.0,1.0,0.0,0.0,0.0,0.0,0.0,0.0,0.0,0.0,0.0,0.0,0.0,0.0,0.0,0.0,0.0,0.0,0.0,0.0,0.0,0.0,0.0,16,73.7,5.583164983164983,0.9299242424242425,0.9375,31.367556468172484,0.928125,1.0,1.0,0.0,0.0625,0.0,1.0,15.0,76.0,38.0,447.0,2.0,0.0,0.0,0.0,0.0,0.0,0.0,0.0,,2
00-0024334,2014,veteran,WR,11.109887346520662,10.404797130371305,115.59612398182665,69.78476094487685,896.5582924856961,6.118867336557025,0.7564383873610119,4.0627501911814266,0.0008635253967447468,0.26216375286584137,0.6036946442585567,12.84747959792955,0.052933153169729096,0.2746784860788114,0.09089063960838566,0.013501692291762644,4.866328747899738,161.14854240611712,166.01487115401684,veteran,Brandon Marshall,WR,13.0,150.6,106.0,61.0,721.0,8.0,0.0,0.0,0.0,0.0,0.0,0.0,0.0,0.0,0.0,1.0,2.0,0.0,0.0,2.0,2.0,0.0,0.0,0.0,0.0,0.0,0.0,0.0,0.0,16,261.5,16.239687500000002,1.0,1.0,30.442162902121833,1.0,1.0,1.0,0.0,0.0,0.0,0.0,16.0,163.0,100.0,1295.0,12.0,0.0,0.0,0.0,0.0,0.0,0.0,0.0,,2
00-0024345,2014,veteran,WR,4.979153262563752,2.377863983902413,11.839749213380541,7.358845455564934,94.49960802656622,0.5401006987321189,0.2675227821969955,1.4940740976882279,0.0004057537045103464,0.1206645721994296,0.6215372743916255,12.841635090339256,0.04561757930832952,0.020447090706263497,0.0012099677583583635,0.0006007566891432079,0.11682864002497817,16.28050051042883,16.397329150453807,veteran,,,0.0,0.0,0.0,0.0,0.0,0.0,0.0,0.0,0.0,0.0,0.0,0.0,0.0,0.0,0.0,0.0,0.0,0.0,0.0,0.0,0.0,0.0,0.0,0.0,0.0,0.0,0.0,0.0,0.0,16,15.0,4.591304347826088,0.6075310559006211,0.4375,29.897330595482547,0.503125,1.0,0.8125,0.0,0.5625,0.0,9.0,7.0,9.0,7.0,55.0,1.0,0.0,0.0,0.0,0.0,0.0,0.0,0.0,,2
00-0024447,2014,veteran,WR,2.046194285527122,1.7969918630274841,3.6769944812655746,1.9364307077750875,26.29014992469521,0.1498089294552788,0.20164255175908957,1.1261430189267712,0.0003058326909254487,0.05135445174112082,0.5266341077315386,13.576602467176304,0.0407422230896894,0.009722779997708143,0.00038401059105826104,0.0002664420200871898,0.022163721564109184,4.507824317644725,4.529988039208834,veteran,,,0.0,0.0,0.0,0.0,0.0,0.0,0.0,0.0,0.0,0.0,0.0,0.0,0.0,0.0,0.0,0.0,0.0,0.0,0.0,0.0,0.0,0.0,0.0,0.0,0.0,0.0,0.0,0.0,0.0,16,0.0,3.0594594594594597,0.7888513513513513,0.0,30.275154004106778,0.346875,0.0,0.9375,0.0,1.0,0.0,16.0,0.0,0.0,0.0,0.0,0.0,0.0,0.0,0.0,0.0,0.0,0.0,0.0,,2
00-0024466,2014,veteran,WR,10.021475455813707,7.169801916399626,71.85199392824494,46.69074199568538,603.8960682315674,3.5855516719599585,0.5916537168502174,3.304296127183454,0.0008973653960525662,0.3122991798852465,0.6498183201751246,12.933957406103602,0.049901909131995326,0.1731441326893162,0.038978214006403895,0.007172721052833461,2.464850994493818,104.95950329808335,107.42435429257716,veteran,Marques Colston,WR,15.0,149.7,99.0,59.0,902.0,5.0,0.0,0.0,0.0,0.0,0.0,0.0,0.0,0.0,0.0,1.0,2.0,0.0,0.0,2.0,2.0,0.0,0.0,0.0,0.0,0.0,0.0,0.0,0.0,16,163.8,12.334653465346534,0.9486386138613861,0.9375,31.241615331964407,0.946875,1.0,1.0,0.0,0.0625,0.0,1.0,15.0,110.0,75.0,943.0,5.0,0.0,0.0,0.0,0.0,0.0,0.0,0.0,,2
00-0024756,2014,veteran,WR,2.706044303367918,0.49760653762003465,1.3465453364453281,0.7608134046094224,9.717833378251008,0.05705838256791555,0.2956112139629363,1.6509437220302505,0.0004483556285383501,0.06705820769367456,0.5650113546253499,12.772952368314066,0.04237390381414181,0.0010113236874445119,1.2079641610309776e-05,2.2997349962400063e-05,0.0029101824670363374,1.7282084261242117,1.731118608591248,veteran,,,0.0,0.0,0.0,0.0,0.0,0.0,0.0,0.0,0.0,0.0,0.0,0.0,0.0,0.0,0.0,0.0,0.0,0.0,0.0,0.0,0.0,0.0,0.0,0.0,0.0,0.0,0.0,0.0,0.0,16,0.0,1.6209302325581398,0.8968023255813954,0.0,30.38466803559206,0.403125,0.0,0.9375,0.0,1.0,0.0,16.0,0.0,0.0,0.0,0.0,0.0,0.0,0.0,0.0,0.0,0.0,0.0,0.0,,2
00-0025389,2014,veteran,WR,10.649106059503566,11.424271937730763,121.65828351750523,69.96218702982068,1093.8397807323206,6.290054540498314,0.6505499876022908,3.723203699598428,0.0009029403377719859,0.4434122229722918,0.5750712981229423,15.63472823206745,0.05170264086122214,0.38226063462430776,0.17435252652429994,0.022713643930789278,7.339541866970461,181.59631239717416,188.9358542641446,veteran,Calvin Johnson,WR,13.0,199.2,128.0,71.0,1077.0,8.0,0.0,0.0,0.0,0.0,0.0,0.0,0.0,0.0,0.0,0.0,8.0,0.0,0.0,8.0,5.0,2.0,0.0,0.0,0.0,0.0,0.0,0.0,0.0,16,274.7,19.52248322147651,0.9354026845637585,0.875,28.922655715263517,0.93125,1.0,1.0,0.0,0.125,0.0,2.0,14.0,157.0,84.0,1492.0,12.0,0.0,0.0,0.0,0.0,0.0,0.0,0.0,,2
00-0025396,2014,veteran,WR,11.022788948852522,2.7901475820637436,30.75520793323982,17.459403658918948,234.57721791629717,1.4774350919671948,1.3142049494354282,8.26829167387949,0.0,0.2843541875273424,0.5676893388858886,13.4355801892733,0.04803853367450014,0.025460599281913906,0.0017020420719905036,0.0007651225808185795,0.32565625766500067,41.31015496522562,41.635811222890624,veteran,Ted Ginn,WR,16.0,33.0,26.0,14.0,190.0,0.0,3.0,6.0,0.0,1.0,1.0,10.0,0.0,0.0,0.0,0.0,0.0,0.0,0.0,0.0,0.0,0.0,0.0,0.0,0.0,0.0,0.0,0.0,0.0,16,106.5,4.463513513513513,0.9328547297297297,1.0,29.388090349075977,0.925,1.0,1.0,0.0,0.0,0.0,0.0,16.0,68.0,36.0,556.0,5.0,4.0,29.0,0.0,0.0,0.0,0.0,0.0,,2
00-0025410,2014,veteran,WR,10.306303700877411,6.676715489141861,68.8122575554483,38.7141033831155,490.6959669841815,2.883636988354644,0.6206749238992456,3.5688104128908393,0.0008614748076435334,0.2667189768303757,0.5626047561645543,12.674863269549212,0.041905862280873944,0.11512333174664877,0.01927083208886726,0.004305665957614829,1.573163594139959,85.55708225657794,87.1302458507179,veteran,Dwayne Bowe,WR,15.0,105.4,95.0,60.0,754.0,0.0,0.0,0.0,0.0,0.0,0.0,0.0,0.0,0.0,0.0,0.0,0.0,0.0,0.0,0.0,0.0,0.0,0.0,0.0,0.0,0.0,0.0,0.0,0.0,16,125.8,9.351202749140894,0.9143041237113402,0.9375,29.94387405886379,0.909375,1.0,1.0,0.0625,0.0,1.0,1.0,15.0,103.0,57.0,673.0,5.0,0.0,0.0,0.0,0.0,0.0,0.0,0.0,,2
00-0025414,2014,veteran,WR,9.777532340710522,2.536477166084869,24.800487522868583,14.146496056668134,203.48573856420808,1.2190033610701443,0.9558958084511531,3.992670480115855,0.0,0.22098182594069762,0.5704120148292899,14.384179499226061,0.04915239508683443,0.024395373338674337,0.0015923281598468416,0.0007298253850842328,0.2761518945139506,34.69314544730593,34.96929734181988,veteran,Robert Meachem,WR,10.0,14.9,21.0,7.0,114.0,0.0,0.0,0.0,0.0,0.0,0.0,0.0,0.0,0.0,0.0,0.0,0.0,0.0,0.0,0.0,0.0,0.0,0.0,0.0,0.0,0.0,0.0,0.0,0.0,16,52.300000000000004,4.515530303030304,0.8607954545454547,0.9375,29.924709103353866,0.825,1.0,0.9375,0.0,0.0625,0.0,1.0,15.0,30.0,16.0,324.0,2.0,2.0,-1.0,0.0,0.0,0.0,0.0,0.0,,2
00-0025431,2014,veteran,WR,7.352594739938457,4.745781340697304,34.89380692250908,19.63512580912134,269.22816748533296,1.802083052991774,0.5689903822956084,2.913001608581338,0.000453714362910568,0.22393603431011763,0.5627109089222144,13.711558056850604,0.051644782038078436,0.07128624996584416,0.008721893702381649,0.0024419517181234834,0.6562410938821711,47.399028349459975,48.05526944334215,veteran,,,0.0,0.0,0.0,0.0,0.0,0.0,0.0,0.0,0.0,0.0,0.0,0.0,0.0,0.0,0.0,0.0,0.0,0.0,0.0,0.0,0.0,0.0,0.0,0.0,0.0,0.0,0.0,0.0,0.0,16,46.6,7.657345971563982,0.7354857819905214,0.5,28.0,0.6593749999999999,1.0,1.0,0.0,0.5,0.0,8.0,8.0,35.0,15.0,231.0,3.0,0.0,0.0,0.0,0.0,0.0,0.0,0.0,,2
00-0025438,2014,veteran,WR,0.693759962736685,1.386512593647401,0.9619069253027654,0.5604297111288838,7.023058345482578,0.04110342073668053,0.04795634479762554,0.26782890037819973,7.273572888488962e-05,0.01794267710983059,0.5826236368476977,12.531559633653082,0.04273118287795153,0.006215573200131786,0.00019329208846159945,0.0001638530531369389,0.004740612675920339,1.220475164724251,1.2252157774001715,veteran,,,0.0,0.0,0.0,0.0,0.0,0.0,0.0,0.0,0.0,0.0,0.0,0.0,0.0,0.0,0.0,0.0,0.0,0.0,0.0,0.0,0.0,0.0,0.0,0.0,0.0,0.0,0.0,0.0,0.0,16,0.0,2.78695652173913,0.5081521739130435,0.0,29.322381930184804,0.21562499999999998,0.0,0.5625,0.0,1.0,0.0,16.0,0.0,0.0,0.0,0.0,0.0,0.0,0.0,0.0,0.0,0.0,0.0,0.0,,2
00-0025460,2014,veteran,WR,8.951701825613267,3.814206585838986,34.143640057720994,19.21161448723833,248.2283657160938,1.3487697811860226,0.8276859841500036,3.8307202896804164,5.361540679665496e-05,0.20071858950982538,0.5626703671536027,12.92074468186857,0.039502811618968604,0.042219688675649146,0.0037670123588963746,0.0013441970454691947,0.452585523601814,42.50321904473385,42.95580456833566,veteran,Jacoby Jones,WR,16.0,21.2,18.0,9.0,131.0,0.0,3.0,16.0,0.0,0.0,0.0,0.0,0.0,0.0,0.0,2.0,0.0,0.0,0.0,0.0,0.0,0.0,0.0,0.0,0.0,0.0,0.0,0.0,0.0,16,83.0,5.990579710144928,0.8804347826086957,0.75,30.140999315537304,0.8625,1.0,1.0,0.1875,0.0625,3.0,4.0,12.0,67.0,37.0,455.0,2.0,2.0,0.0,0.0,0.0,0.0,0.0,0.0,,2
00-0025462,2014,veteran,WR,1.5850980899795175,4.63292433467196,7.343639513908151,4.383268422752788,56.89180425453937,0.3452446554269204,0.1379721049011017,0.7705532457585745,0.0002092632717967482,0.04709965424211042,0.5968795737387839,12.979311045434468,0.04701274548853603,0.06867955450785465,0.008210069079110725,0.002338961542022086,0.13579944484048154,9.936394165114272,10.072193609954754,veteran,,,0.0,0.0,0.0,0.0,0.0,0.0,0.0,0.0,0.0,0.0,0.0,0.0,0.0,0.0,0.0,0.0,0.0,0.0,0.0,0.0,0.0,0.0,0.0,0.0,0.0,0.0,0.0,0.0,0.0,16,0.0,9.007142857142856,0.65625,0.0,29.284052019164957,0.2625,0.0,0.875,0.0,1.0,0.0,16.0,0.0,0.0,0.0,0.0,0.0,0.0,0.0,0.0,0.0,0.0,0.0,0.0,,2
00-0025465,2014,veteran,WR,9.705240167543604,6.113140439870525,59.329496146866596,37.13299373085547,487.9623550296174,3.260133858899329,0.551649134702701,3.080876613209379,0.0008366901620764539,0.2812533211379848,0.6258774495393484,13.140937640698429,0.0549496299585802,0.12680266371405677,0.022702037816626032,0.004844861982826841,1.655184497427579,86.67413668180289,88.32932117923048,veteran,James Jones,WR,16.0,138.1,112.0,73.0,666.0,6.0,0.0,0.0,0.0,0.0,0.0,0.0,0.0,0.0,0.0,1.0,1.0,0.0,0.0,1.0,1.0,0.0,0.0,0.0,0.0,0.0,0.0,0.0,0.0,16,130.7,10.33425605536332,0.9041955017301038,0.875,30.420260095824776,0.9031250000000001,1.0,0.9375,0.0625,0.0625,1.0,2.0,14.0,93.0,59.0,817.0,3.0,0.0,0.0,0.0,0.0,0.0,0.0,0.0,,2
00-0025529,2014,veteran,WR,1.2460581486371503,2.8127339358969414,3.5048300407726276,2.061481431086128,26.338336109595158,0.14551000401835193,0.13165625224664293,0.8027465405204736,0.0001827342143399634,0.03174394211234903,0.5881829952107125,12.776412007610634,0.04151699292850011,0.02513209831306846,0.0016679170520697128,0.0007542165522710234,0.03631313370791106,4.5555175257260805,4.591830659433992,veteran,,,0.0,0.0,0.0,0.0,0.0,0.0,0.0,0.0,0.0,0.0,0.0,0.0,0.0,0.0,0.0,0.0,0.0,0.0,0.0,0.0,0.0,0.0,0.0,0.0,0.0,0.0,0.0,0.0,0.0,16,0.0,4.876666666666667,0.7375,0.0,31.033538672142367,0.28125,0.0,1.0,0.0,1.0,0.0,16.0,0.0,0.0,0.0,0.0,0.0,0.0,0.0,0.0,0.0,0.0,0.0,0.0,,2
00-0026000,2014,veteran,WR,10.168897214637827,5.0407437600316,51.25880518108835,28.538966532027725,325.5899289986166,1.833330750755559,0.6215267720746719,3.428389131508638,0.0007849708044588979,0.33396790223742234,0.5567622271179473,11.40860965071124,0.03576616240426837,0.055439610666024236,0.0058135052374495505,0.0018295218609286786,0.6896435478183474,57.50807360391165,58.19771715173,veteran,,,0.0,0.0,0.0,0.0,0.0,0.0,0.0,0.0,0.0,0.0,0.0,0.0,0.0,0.0,0.0,0.0,0.0,0.0,0.0,0.0,0.0,0.0,0.0,0.0,0.0,0.0,0.0,0.0,0.0,16,69.2,6.218928571428571,0.8790178571428571,0.875,28.966461327857633,0.8750000000000001,1.0,1.0,0.0,0.125,0.0,2.0,14.0,86.0,42.0,362.0,2.0,0.0,0.0,0.0,0.0,0.0,0.0,0.0,,2
00-0026035,2014,veteran,WR,8.01653505618614,6.350677942038022,50.91043235289585,31.663504546618736,374.6911112748098,1.9592506540074954,0.6832940479482066,3.434041942915007,0.0004224148171689385,0.25090799001005337,0.6219453083237796,11.83353253658784,0.03848426665141159,0.1113850316413556,0.01822820435299975,0.004136942700181168,1.178440462060922,64.90049002800971,66.07893049007063,veteran,Danny Amendola,WR,15.0,39.5,42.0,27.0,200.0,1.0,0.0,0.0,0.0,0.0,0.0,0.0,0.0,0.0,0.0,0.0,0.0,0.0,0.0,0.0,0.0,0.0,0.0,0.0,0.0,0.0,0.0,0.0,0.0,16,105.4,9.406965174129354,0.7192164179104478,0.75,28.829568788501028,0.628125,1.0,0.75,0.1875,0.0625,3.0,4.0,12.0,83.0,54.0,633.0,2.0,1.0,1.0,0.0,0.0,0.0,0.0,0.0,,2
00-0026173,2014,veteran,WR,10.067346971699429,4.794806845494787,48.27098417587564,26.27581656077445,350.73201990178967,1.8693958492463365,1.0743016026912604,5.0012152259274805,0.0,0.29469659502841467,0.5443397728340973,13.348092116968722,0.03872711280207548,0.06496412285765214,0.007503160818285982,0.0021936880584052638,0.8114909881965907,59.338213698580134,60.14970468677672,veteran,Donnie Avery,WR,5.0,23.1,26.0,15.0,176.0,0.0,0.0,0.0,0.0,0.0,0.0,0.0,0.0,0.0,0.0,1.0,0.0,0.0,0.0,0.0,0.0,0.0,0.0,0.0,0.0,0.0,0.0,0.0,0.0,16,91.2,6.641758241758241,0.9292582417582418,0.9375,30.220396988364133,0.853125,1.0,1.0,0.0,0.0625,0.0,1.0,15.0,72.0,40.0,596.0,2.0,2.0,6.0,0.0,0.0,0.0,0.0,0.0,,2
00-0026176,2014,veteran,WR,11.117449161893528,8.092737311942106,89.97059564607525,58.20827575796316,849.626236452953,5.210757440373458,0.6661314668570114,3.7202430466398706,0.0010103263286530629,0.2460266288926986,0.6469699943628455,14.596313417456283,0.05791622699566694,0.2531937356796288,0.07789659804743783,0.012001445308812636,4.380736603723388,145.21733917136814,149.59807577509153,veteran,Jordy Nelson,WR,16.0,290.9,151.0,98.0,1519.0,13.0,0.0,0.0,0.0,0.0,0.0,0.0,0.0,0.0,0.0,0.0,12.0,0.0,0.0,12.0,7.0,2.0,1.0,0.0,0.0,0.0,0.0,0.0,0.0,16,228.4,14.02972972972973,0.9391891891891891,1.0,29.253935660506503,0.925,1.0,1.0,0.0,0.0,0.0,0.0,16.0,127.0,85.0,1314.0,8.0,0.0,0.0,0.0,0.0,0.0,0.0,0.0,,2
00-0026182,2014,veteran,WR,10.436884908563641,4.435618825364377,46.29404317858625,28.05002338161028,351.5092713077183,2.4937509327047023,1.2812670572304528,7.7547919619362045,0.0,0.3078417995882482,0.6059099930719615,12.53151437792274,0.05386764174139386,0.060973532427585034,0.006773666575270888,0.0020396587681974125,0.7849930757307463,64.2982400148223,65.08323309055305,veteran,Eddie Royal,WR,16.0,151.2,91.0,62.0,778.0,7.0,3.0,14.0,0.0,0.0,0.0,0.0,0.0,0.0,0.0,1.0,1.0,0.0,0.0,1.0,1.0,0.0,0.0,0.0,0.0,0.0,0.0,0.0,0.0,16,134.7,7.148275862068964,0.8397988505747126,0.9375,28.281998631074607,0.815625,1.0,0.9375,0.0,0.0625,0.0,1.0,15.0,67.0,47.0,631.0,8.0,3.0,21.0,0.0,0.0,0.0,0.0,0.0,,2
00-0026186,2014,veteran,WR,11.449589346224013,4.843009143906682,55.45046589773942,29.19341560862245,391.20602116183625,1.880530693946067,0.6860325273402545,3.831387446157387,0.0010405104084852403,0.29536433031371506,0.5264773728404795,13.400488192491297,0.033913704123137614,0.06264150617530152,0.007074814969842393,0.0021037862557155857,0.8869000882943258,64.79914723061046,65.68604731890478,veteran,,,0.0,0.0,0.0,0.0,0.0,0.0,0.0,0.0,0.0,0.0,0.0,0.0,0.0,0.0,0.0,0.0,0.0,0.0,0.0,0.0,0.0,0.0,0.0,0.0,0.0,0.0,0.0,0.0,0.0,16,104.6,5.942567567567567,0.9391891891891891,1.0,28.57221081451061,0.925,1.0,1.0,0.0,0.0,0.0,0.0,16.0,100.0,48.0,726.0,1.0,0.0,0.0,0.0,0.0,0.0,0.0,0.0,,2
00-0026189,2014,veteran,WR,11.672148116960514,8.150487251329015,95.13369442291064,57.38086799253272,846.1028992740652,4.573436332214773,1.4029865974390778,5.467957457747355,0.0,0.2813339270852522,0.6031603034089038,14.745383415673897,0.04807378037778981,0.23344529556992438,0.06694006658005654,0.010704052388058036,4.146688195072448,140.72546980856575,144.8721580036382,veteran,DeSean Jackson,WR,15.0,189.1,95.0,56.0,1169.0,6.0,4.0,7.0,0.0,0.0,0.0,0.0,0.0,0.0,0.0,0.0,7.5,0.0,0.0,7.5,6.0,1.0,0.0,0.0,0.0,0.0,0.0,0.0,0.0,16,237.9,12.947038327526133,0.918336236933798,1.0,27.750855578370977,0.8968750000000001,1.0,1.0,0.0,0.0,0.0,0.0,16.0,125.0,82.0,1332.0,9.0,3.0,2.0,0.0,0.0,0.0,0.0,0.0,,2
00-0026210,2014,veteran,WR,10.41864356881269,3.313582803820542,34.52303816875321,21.65321031328173,251.63934525025485,1.6752103065087978,0.5550643385857104,3.099950008073264,0.0008418700260708734,0.25573757501289807,0.627210450234361,11.621341205738132,0.04852441718252451,0.03244091060937916,0.0024866083865855114,0.0010010729475649874,0.39771055885353845,45.84537259165709,46.24308315051063,veteran,,,0.0,0.0,0.0,0.0,0.0,0.0,0.0,0.0,0.0,0.0,0.0,0.0,0.0,0.0,0.0,0.0,0.0,0.0,0.0,0.0,0.0,0.0,0.0,0.0,0.0,0.0,0.0,0.0,0.0,16,66.3,4.948262548262548,0.8163610038610039,0.875,27.444216290212182,0.8093750000000001,1.0,0.875,0.0,0.125,0.0,2.0,14.0,43.0,32.0,243.0,4.0,0.0,0.0,0.0,0.0,0.0,0.0,0.0,,2
00-0026221,2014,veteran,WR,3.1088725444553837,3.27912616986188,10.19438531928874,5.812085984865918,69.82151357571075,0.42127851746013756,0.4014175547296224,2.189601507697374,0.0004108905787926489,0.07753028432552028,0.5701261824848726,12.01315908909794,0.04132456291043255,0.028227099584465273,0.0019995579112160036,0.0008576903428952864,0.1024119108619374,12.482230380356313,12.58464229121825,veteran,,,0.0,0.0,0.0,0.0,0.0,0.0,0.0,0.0,0.0,0.0,0.0,0.0,0.0,0.0,0.0,0.0,0.0,0.0,0.0,0.0,0.0,0.0,0.0,0.0,0.0,0.0,0.0,0.0,0.0,16,0.0,4.9525,0.85,0.0,28.843258042436688,0.375,0.0,1.0,0.0,1.0,0.0,16.0,0.0,0.0,0.0,0.0,0.0,0.0,0.0,0.0,0.0,0.0,0.0,0.0,,2
00-0026224,2014,veteran,WR,10.969348537797678,5.531451792790063,60.67642263514002,37.92964018216673,465.98649186061124,2.042475602039181,0.7855665229464412,4.046549430267858,0.0007140191728289341,0.3881266846103692,0.6251133230158535,12.285550024271066,0.033661767014858686,0.09372546262363192,0.01366436555146054,0.0033647727627471712,1.326759779177842,77.45100857822258,78.77776835740043,veteran,Harry Douglas,WR,12.0,97.1,74.0,51.0,556.0,2.0,0.0,0.0,0.0,0.0,0.0,0.0,0.0,0.0,0.0,0.0,2.0,0.0,0.0,2.0,2.0,0.0,0.0,0.0,0.0,0.0,0.0,0.0,0.0,16,160.2,7.807868852459016,0.9575819672131147,1.0,29.95756331279945,0.953125,1.0,1.0,0.0,0.0,0.0,0.0,16.0,132.0,85.0,1067.0,2.0,0.0,0.0,0.0,0.0,0.0,0.0,0.0,,2
00-0026235,2014,veteran,WR,5.022453567886615,3.914847744635307,19.662141022776463,11.396406458905203,138.57212629466554,0.7847437402833999,0.39160109902199164,3.037054789530909,0.00031226370196453236,0.1416396204701096,0.5796116733016866,12.159282559318044,0.039911408395167096,0.041817316698656175,0.003710319523334847,0.0013298041946572662,0.25133565238866284,24.28617812084421,24.53751377323287,veteran,,,0.0,0.0,0.0,0.0,0.0,0.0,0.0,0.0,0.0,0.0,0.0,0.0,0.0,0.0,0.0,0.0,0.0,0.0,0.0,0.0,0.0,0.0,0.0,0.0,0.0,0.0,0.0,0.0,0.0,16,13.0,5.55125,0.58671875,0.3125,28.27104722792608,0.5,1.0,0.75,0.0625,0.625,1.0,11.0,5.0,23.0,9.0,85.0,0.0,0.0,0.0,0.0,0.0,0.0,0.0,0.0,,2
00-0026237,2014,veteran,WR,9.492669767903607,1.9183981944600932,18.210720543352192,10.37886694315996,128.5272293018691,0.8865058602085009,0.8526657777554383,5.176497278228722,0.0007113221590898709,0.22110011036366883,0.5699317014091876,12.383551114562954,0.048680438431752175,0.01073699741434453,0.00044731139232742265,0.0002968512516032084,0.11392786155270186,23.44090900306797,23.554836864620672,veteran,Andre Caldwell,WR,13.0,7.199999999999999,15.0,5.0,47.0,0.0,0.0,0.0,0.0,0.0,0.0,0.0,0.0,0.0,0.0,0.0,0.0,0.0,0.0,0.0,0.0,0.0,0.0,0.0,0.0,0.0,0.0,0.0,0.0,16,46.699999999999996,3.3812785388127846,0.8450342465753425,0.9375,29.37987679671458,0.684375,1.0,0.9375,0.0,0.0625,0.0,1.0,15.0,29.0,16.0,200.0,3.0,1.0,7.0,0.0,0.0,0.0,0.0,0.0,,2
00-0026314,2014,veteran,WR,9.947878588460785,2.7833938038753887,27.688863624826396,17.021604780161642,204.6483779373607,1.077065202846111,0.9831861762591448,5.877754718740865,6.36883163499701e-05,0.22468289840408037,0.6147455168546435,12.022860393038528,0.03889885903011175,0.023860398997568224,0.0015382621587471865,0.0007121729264723122,0.2744832397017718,35.576823205857586,35.85130644555936,veteran,Josh Morgan,WR,8.0,21.0,19.0,10.0,70.0,1.0,2.0,30.0,0.0,0.0,0.0,0.0,0.0,0.0,0.0,0.0,0.0,0.0,0.0,0.0,0.0,0.0,0.0,0.0,0.0,0.0,0.0,0.0,0.0,16,32.7,3.9215094339622647,0.8884433962264152,0.875,29.19917864476386,0.828125,1.0,1.0,0.0,0.125,0.0,2.0,14.0,33.0,20.0,214.0,0.0,2.0,13.0,0.0,0.0,0.0,0.0,0.0,,2
00-0026345,2014,veteran,WR,11.491383522103426,9.063781969155837,104.15539476829554,63.399704932588335,787.2239835235412,4.1223781487582745,1.150774318061991,6.998836406203895,0.0,0.3764700985824072,0.6087030352448622,12.41683986322304,0.039579113092787284,0.21355259852941408,0.05682361892820424,0.009470638645314016,3.6511492909151686,135.1034631546535,138.75461244556865,veteran,Pierre Garcon,WR,16.0,128.2,105.0,68.0,752.0,3.0,0.0,0.0,0.0,1.0,0.0,0.0,0.0,0.0,0.0,0.0,1.0,0.0,0.0,1.0,1.0,0.0,0.0,0.0,0.0,0.0,0.0,0.0,0.0,16,227.5,13.094014084507041,0.920774647887324,1.0,28.06570841889117,0.8875000000000001,1.0,1.0,0.0,0.0,0.0,0.0,16.0,181.0,113.0,1346.0,5.0,2.0,19.0,0.0,0.0,0.0,0.0,0.0,,2
00-0026364,2014,veteran,WR,9.928730248238388,7.557527566383375,75.03665255024607,41.3812612854186,514.9413171559675,3.0826914599231876,0.6664380433614264,3.9749880853951813,0.0007081230906505702,0.32688816693294814,0.5514806415132774,12.443828466326034,0.041082475765546106,0.13390506755151943,0.024918381193672536,0.005181824687617446,1.8035170012673338,90.42888233106271,92.23239933233005,veteran,Steve Johnson,WR,13.0,80.0,50.0,35.0,435.0,3.0,0.0,0.0,0.0,0.0,0.0,0.0,0.0,0.0,0.0,0.0,1.0,0.0,0.0,1.0,1.0,0.0,0.0,0.0,0.0,0.0,0.0,0.0,0.0,16,105.7,10.121376811594203,0.8804347826086957,0.75,28.112251882272417,0.8625,1.0,1.0,0.1875,0.0625,3.0,4.0,12.0,101.0,52.0,597.0,3.0,1.0,10.0,0.0,0.0,0.0,0.0,0.0,,2
00-0026366,2014,veteran,WR,2.3872924248770424,2.3648515634566225,5.6455922233986255,3.466883607313443,42.931899533680735,0.25433890767735906,0.21842136796652092,1.2198501584814678,0.00033128124068092436,0.06990601101225062,0.6140867902121333,12.38342684568794,0.045050881752180104,0.01844324784735559,0.0010310798761894659,0.0005363705825115091,0.050282606500040454,7.53682588435668,7.58710849085672,veteran,,,0.0,0.0,0.0,0.0,0.0,0.0,0.0,0.0,0.0,0.0,0.0,0.0,0.0,0.0,0.0,0.0,0.0,0.0,0.0,0.0,0.0,0.0,0.0,0.0,0.0,0.0,0.0,0.0,0.0,16,0.0,4.468571428571428,0.7303571428571428,0.0,28.815879534565365,0.328125,0.0,0.75,0.0,1.0,0.0,16.0,0.0,0.0,0.0,0.0,0.0,0.0,0.0,0.0,0.0,0.0,0.0,0.0,,2
00-0026739,2014,veteran,WR,1.279997987381229,3.545648522367531,4.538422972591668,2.7508042470032454,34.7095621513121,0.19360560688598422,0.14573686433338365,0.777405097371831,0.00018406155418410392,0.03368681804269407,0.6061145608542514,12.617968795534999,0.04265922503371819,0.04046137376520836,0.0035217629877036037,0.0012814716902875523,0.06183281365949601,6.019463222925638,6.081296036585134,veteran,,,0.0,0.0,0.0,0.0,0.0,0.0,0.0,0.0,0.0,0.0,0.0,0.0,0.0,0.0,0.0,0.0,0.0,0.0,0.0,0.0,0.0,0.0,0.0,0.0,0.0,0.0,0.0,0.0,0.0,16,0.0,5.66,0.5375,0.0,27.926078028747433,0.140625,0.0,0.6875,0.0,1.0,0.0,16.0,0.0,0.0,0.0,0.0,0.0,0.0,0.0,0.0,0.0,0.0,0.0,0.0,,2
00-0026780,2014,veteran,WR,9.867352967684102,3.280757592216137,32.372393163806045,18.005838081780354,231.22519160156557,1.473331781347799,0.6829934947092071,3.5922423190549018,0.000544620731678828,0.2428409447829214,0.5562096688579633,12.841678934985893,0.04551198219707333,0.03061785792847639,0.002270957462426353,0.0009386950835584714,0.3542545910162196,40.84223895586325,41.19649354687947,veteran,Kevin Ogletree,WR,4.0,7.5,9.0,5.0,50.0,0.0,0.0,0.0,0.0,0.0,0.0,0.0,0.0,0.0,0.0,0.0,0.0,0.0,0.0,0.0,0.0,0.0,0.0,0.0,0.0,0.0,0.0,0.0,0.0,16,49.4,4.40392156862745,0.800735294117647,0.75,27.07460643394935,0.796875,1.0,0.875,0.0,0.25,0.0,4.0,12.0,45.0,21.0,269.0,2.0,0.0,0.0,0.0,0.0,0.0,0.0,0.0,,2
00-0026901,2014,veteran,WR,12.08796336642516,7.903677453920313,95.53936352302922,53.15683581266882,693.2451846675809,4.3573417434276935,1.4559150166171335,9.044456358666052,0.0,0.3302510968813029,0.5563867483778627,13.041505839637665,0.04560781632564865,0.15927078792967547,0.0336502900491835,0.00644311858529425,2.691173022760895,122.29093027576266,124.98210329852355,veteran,Mike Wallace,WR,16.0,180.3,115.0,67.0,862.0,10.0,4.0,16.0,0.0,1.0,0.0,0.0,0.0,0.0,0.0,1.0,1.0,0.0,0.0,1.0,1.0,0.0,0.0,0.0,0.0,0.0,0.0,0.0,0.0,16,166.8,10.998726114649683,0.9820859872611465,1.0,28.084873374401095,0.9812500000000001,1.0,1.0,0.0,0.0,0.0,0.0,16.0,141.0,73.0,930.0,5.0,3.0,33.0,0.0,0.0,0.0,0.0,0.0,,2
00-0026902,2014,veteran,WR,0.4860287755193511,2.1082897379008507,1.0246894797519641,0.6060333982333986,7.939757784498571,0.04328016744199303,0.028330763336061906,0.15822300934720468,4.296947004217467e-05,0.012652301477187215,0.5914312679194236,13.101188494962734,0.04223734926259749,0.015348505034634983,0.0007759861488372678,0.0004385410991166683,0.008451829691482437,1.3474489970191137,1.355900826710596,veteran,,,0.0,0.0,0.0,0.0,0.0,0.0,0.0,0.0,0.0,0.0,0.0,0.0,0.0,0.0,0.0,0.0,0.0,0.0,0.0,0.0,0.0,0.0,0.0,0.0,0.0,0.0,0.0,0.0,0.0,16,0.0,3.6950000000000003,0.41875,0.0,28.6652977412731,0.1875,0.0,0.4375,0.0,1.0,0.0,16.0,0.0,0.0,0.0,0.0,0.0,0.0,0.0,0.0,0.0,0.0,0.0,0.0,,2
00-0026937,2014,veteran,WR,7.53829556545195,5.2988725259839775,39.94446726452019,24.487593168109118,303.76290713682044,1.877083146767852,0.4916348199689206,2.8012596137566455,0.0006209209280604307,0.17677167518918693,0.6130409251911514,12.404767796143373,0.04699231896966943,0.08509398453344211,0.01164975307977003,0.003002115784405522,0.8184542014339592,53.81289431490937,54.63134851634333,veteran,Brandon Gibson,WR,14.0,50.0,51.0,29.0,295.0,1.0,0.0,0.0,0.0,0.0,0.0,0.0,0.0,0.0,0.0,0.0,0.0,0.0,0.0,0.0,0.0,0.0,0.0,0.0,0.0,0.0,0.0,0.0,0.0,16,65.6,8.0444976076555,0.7407296650717703,0.4375,27.052703627652292,0.6531250000000001,1.0,0.9375,0.0,0.5625,0.0,9.0,7.0,43.0,30.0,326.0,3.0,0.0,0.0,0.0,0.0,0.0,0.0,0.0,,2
00-0026983,2014,veteran,WR,11.707820179739354,4.628458427411271,54.189158977530354,28.99234217530767,373.90989148533197,2.226677779496684,1.106285443851242,7.0178294807525985,0.0,0.2798369196838765,0.5350210765834067,12.896850113882323,0.04109083480000087,0.05517404984054134,0.005768944285818976,0.0018195398163548579,0.7898861875685073,65.38933602187466,66.17922220944317,veteran,Darrius Heyward-Bey,WR,9.0,2.8000000000000003,5.0,3.0,33.0,0.0,0.0,0.0,0.0,0.0,0.0,0.0,0.0,0.0,0.0,1.0,0.0,0.0,0.0,0.0,0.0,0.0,0.0,0.0,0.0,0.0,0.0,0.0,0.0,16,56.0,5.867333333333334,0.9375,0.9375,27.512662559890487,0.9375,1.0,0.9375,0.0,0.0625,0.0,1.0,15.0,64.0,29.0,309.0,1.0,3.0,26.0,0.0,0.0,0.0,0.0,0.0,,2
00-0026986,2014,veteran,WR,7.0734369958568735,7.632681517473809,53.98929182329223,33.47738443801901,432.93455016148494,2.5067533075571644,0.5784177431477736,3.296504169569545,0.0006603028342842483,0.1673437344705813,0.6200745241777017,12.932149790944164,0.04643056470830931,0.17770311337390254,0.0408163156131459,0.007418864237826107,1.794992969290963,75.07159184552246,76.86658481481342,veteran,Michael Crabtree,WR,16.0,128.2,108.0,68.0,698.0,4.0,1.0,4.0,0.0,0.0,0.0,0.0,0.0,0.0,0.0,0.0,0.0,0.0,0.0,0.0,0.0,0.0,0.0,0.0,0.0,0.0,0.0,0.0,0.0,16,44.9,11.360714285714286,0.7927295918367346,0.3125,26.965092402464066,0.6125,1.0,1.0,0.0,0.6875,0.0,11.0,5.0,33.0,19.0,284.0,1.0,0.0,0.0,0.0,0.0,0.0,0.0,0.0,,2
00-0026995,2014,veteran,WR,4.767055518745465,7.099272766482752,33.84262742054099,19.977460957683736,254.7544373147104,1.5797667452091102,0.5496399003533907,2.9987960572769112,0.0007628807112997072,0.1468870283446854,0.5903046684123081,12.752092863769391,0.046679790123217824,0.14107658968317213,0.02725691596940376,0.00552915445680925,0.9201383554935039,44.95345751487368,45.87359587036719,veteran,Jeremy Maclin,WR,16.0,242.8,143.0,85.0,1318.0,10.0,0.0,0.0,0.0,0.0,0.0,0.0,0.0,0.0,0.0,0.0,8.5,0.0,0.0,8.5,4.0,3.0,0.0,0.0,0.0,0.0,0.0,0.0,0.0,16,0.0,11.079069767441862,0.8997093023255813,0.0,26.308008213552363,0.403125,0.0,0.9375,0.0,1.0,0.0,16.0,0.0,0.0,0.0,0.0,0.0,0.0,0.0,0.0,0.0,0.0,0.0,0.0,,2
00-0026998,2014,veteran,WR,4.891920351811386,8.086791180364038,39.55993835607166,25.90216396051021,310.5638883058828,1.7176343983812419,3.417969438917886,18.552391259894655,0.11464712519439853,0.16231336196101304,0.6547574398971414,11.989881956556244,0.04341853070955606,0.1887842028818777,0.04546709355515356,0.008030693661194762,1.335720412149322,56.53177235436467,57.86749276651399,veteran,Percy Harvin,WR,13.0,106.0,78.0,51.0,483.0,1.0,33.0,202.0,1.0,0.0,0.0,0.0,0.0,0.0,0.0,1.0,2.0,0.0,0.0,2.0,2.0,0.0,0.0,0.0,0.0,0.0,0.0,0.0,0.0,16,2.2,13.669026548672564,0.6996681415929203,0.0625,26.261464750171115,0.353125,1.0,1.0,0.3125,0.625,5.0,15.0,1.0,1.0,1.0,17.0,0.0,0.0,0.0,0.0,0.0,0.0,0.0,0.0,,2
00-0027005,2014,veteran,WR,11.762407713641394,6.9932002443949095,82.25687249770957,46.54083256495285,653.7725583501596,2.825309541438016,0.6695944641089787,3.739583360208828,0.0010155786811897533,0.2627010853381028,0.565798712639467,14.04728970926225,0.03434739804284057,0.15097165914334587,0.03065138175897805,0.006020304889448312,2.4582178432425263,105.45417900355231,107.91239684679483,veteran,Hakeem Nicks,WR,15.0,83.5,68.0,38.0,405.0,4.0,0.0,0.0,0.0,0.0,0.0,0.0,0.0,0.0,0.0,0.0,0.0,0.0,0.0,0.0,0.0,0.0,0.0,0.0,0.0,0.0,0.0,0.0,0.0,16,120.6,9.359574468085107,0.8896276595744681,0.9375,26.63107460643395,0.88125,1.0,0.9375,0.0,0.0625,0.0,1.0,15.0,101.0,56.0,896.0,0.0,0.0,0.0,0.0,0.0,0.0,0.0,0.0,,2
00-0027006,2014,veteran,WR,8.87598230837364,4.136758685332371,36.71779690502112,18.940043161643136,239.15974930247054,1.5277616520978938,0.49169983870689216,2.7460689023056135,0.000745764638899236,0.2603328358320891,0.5158273305622295,12.627201916139791,0.041608205853139686,0.03997313100893708,0.0034548130203307394,0.0012641326958200718,0.4232389314034904,42.31098223005576,42.734221161459246,veteran,Kenny Britt,WR,16.0,120.2,84.0,48.0,748.0,3.0,2.0,14.0,0.0,0.0,0.0,0.0,0.0,0.0,0.0,0.0,2.0,0.0,0.0,2.0,2.0,0.0,0.0,0.0,0.0,0.0,0.0,0.0,0.0,16,15.1,4.78177339901478,0.7090517241379312,0.625,25.949349760438057,0.6343749999999999,1.0,0.875,0.0,0.375,0.0,6.0,10.0,35.0,11.0,96.0,0.0,0.0,0.0,0.0,0.0,0.0,0.0,0.0,,2
00-0027026,2014,veteran,WR,2.6701429438575026,2.9120007427214354,7.775458235685448,4.280654260224185,55.84885126724587,0.3197396813160711,0.2394650240489161,1.3373757808421607,0.0003631983033764895,0.06773231604966964,0.5505340174779837,13.046802631596082,0.041121651177885125,0.024630543022492842,0.0016163146480734274,0.0007376010601958282,0.07617975791632549,9.644102480538242,9.720282238454567,veteran,,,0.0,0.0,0.0,0.0,0.0,0.0,0.0,0.0,0.0,0.0,0.0,0.0,0.0,0.0,0.0,0.0,0.0,0.0,0.0,0.0,0.0,0.0,0.0,0.0,0.0,0.0,0.0,0.0,0.0,16,0.0,4.1781250000000005,0.6992187500000001,0.0,27.770020533880903,0.3,0.0,0.875,0.0,1.0,0.0,16.0,0.0,0.0,0.0,0.0,0.0,0.0,0.0,0.0,0.0,0.0,0.0,0.0,,2
00-0027057,2014,veteran,WR,12.854078896410286,0.8297024485650617,10.6650607344001,6.154372869089488,80.80550804320366,0.46943696869630447,0.8461337928540072,4.469593632170703,0.0010686431444286537,0.34987081018864447,0.5770593363091303,13.12977126378735,0.044016342746379104,0.002612058913297773,5.1355821635882824e-05,6.409127329133327e-05,0.036213477595164086,13.727988652749291,13.764202130344454,veteran,Brandon Tate,WR,15.0,33.9,26.0,17.0,193.0,1.0,3.0,21.0,0.0,0.0,0.0,0.0,0.0,0.0,0.0,1.0,0.0,0.0,0.0,0.0,0.0,0.0,0.0,0.0,0.0,0.0,0.0,0.0,0.0,16,1.1,0.6678125,1.0,1.0,26.90759753593429,1.0,1.0,1.0,0.0,0.0,0.0,0.0,16.0,2.0,1.0,6.0,0.0,0.0,0.0,0.0,0.0,0.0,0.0,0.0,,2
00-0027076,2014,veteran,WR,4.244159728623234,2.4986424314987836,10.604637583996377,5.798273328204623,67.96018104080326,0.433556679752376,0.868282142269132,5.260557710100215,0.0,0.10517408906163457,0.5467677025525971,11.720761887892314,0.04088368662467665,0.01477380609291948,0.0007315613043158766,0.00042060292391672905,0.07092989938110934,12.612202439583648,12.683132338964757,veteran,,,0.0,0.0,0.0,0.0,0.0,0.0,0.0,0.0,0.0,0.0,0.0,0.0,0.0,0.0,0.0,0.0,0.0,0.0,0.0,0.0,0.0,0.0,0.0,0.0,0.0,0.0,0.0,0.0,0.0,16,0.0,3.106976744186046,0.8968023255813954,0.0,27.24435318275154,0.403125,0.0,0.9375,0.0,1.0,0.0,16.0,0.0,0.0,0.0,0.0,0.0,0.0,0.0,0.0,0.0,0.0,0.0,0.0,,2
00-0027077,2014,veteran,WR,12.17108290113925,7.340611981768507,89.34319697520058,51.39936486464398,687.5810667473228,3.099991554011934,0.7599695639903976,4.308811764722113,0.0010548108337301615,0.3110040974886602,0.575302503210302,13.377228854053183,0.03469756689893706,0.1552356035166513,0.03217473052402345,0.0062362842199780895,2.6285920328769437,112.87294027762314,115.50153231050008,veteran,Brian Hartline,WR,16.0,78.9,63.0,39.0,474.0,2.0,0.0,0.0,0.0,0.0,0.0,0.0,0.0,0.0,0.0,0.0,0.0,0.0,0.0,0.0,0.0,0.0,0.0,0.0,0.0,0.0,0.0,0.0,0.0,16,165.6,9.62797427652733,0.9728697749196141,1.0,27.77549623545517,0.971875,1.0,1.0,0.0,0.0,0.0,0.0,16.0,133.0,76.0,1016.0,4.0,0.0,0.0,0.0,0.0,0.0,0.0,0.0,,2
00-0027089,2014,veteran,WR,6.9853577327002725,2.620030185140944,18.30184811368242,9.653864673723842,122.2107644093563,0.7659735058071115,0.592392269074001,3.681957077414549,0.01233720573042673,0.21511925421002995,0.5274803185863308,12.659258083655654,0.0418522490761177,0.017497231218224166,0.0009503186270416311,0.0005062519077037807,0.13925459410231408,21.655830246344177,21.795084840446492,veteran,Louis Murphy,WR,11.0,66.5,56.0,31.0,380.0,2.0,0.0,0.0,0.0,0.0,0.0,0.0,0.0,0.0,0.0,0.0,1.0,0.0,0.0,1.0,1.0,0.0,0.0,0.0,0.0,0.0,0.0,0.0,0.0,16,10.7,3.101030927835051,0.6868556701030927,0.4375,27.310061601642712,0.6062500000000001,1.0,0.9375,0.0,0.5625,0.0,9.0,7.0,13.0,6.0,37.0,1.0,0.0,0.0,0.0,0.0,0.0,0.0,0.0,,2
00-0027150,2014,veteran,WR,11.055127686204568,6.64683952286909,73.48165963502883,48.03286362733612,529.8525744876083,3.236630297869576,1.2443216071210865,7.507147359064219,0.0,0.310720962831089,0.6536714585096112,11.031042800164476,0.04404677730396101,0.11649286959787042,0.019659531341764104,0.004367944035846759,1.710427849873013,96.5507438598906,98.26117170976362,veteran,Julian Edelman,WR,14.0,183.6,134.0,92.0,972.0,4.0,10.0,94.0,0.0,0.0,0.0,0.0,0.0,0.0,0.0,0.0,1.0,0.0,0.0,1.0,1.0,0.0,0.0,0.0,0.0,0.0,0.0,0.0,0.0,16,203.2,9.906319702602232,0.8849907063197028,1.0,28.279260780287473,0.840625,1.0,1.0,0.0,0.0,0.0,0.0,16.0,151.0,105.0,1056.0,6.0,2.0,11.0,0.0,0.0,0.0,0.0,0.0,,2
00-0027156,2014,veteran,WR,9.194013616851127,3.980385373171461,36.59571732125347,20.353196948292364,290.25193118002625,1.7684486270972304,0.5771590959071685,3.0787434957180606,0.000728935679315499,0.21284886279517004,0.5561633556632586,14.260753822478902,0.04832392303102034,0.05398393325220061,0.005570958342723191,0.0017749205461804656,0.6057955050456,49.699033592789554,50.30482909783515,veteran,,,0.0,0.0,0.0,0.0,0.0,0.0,0.0,0.0,0.0,0.0,0.0,0.0,0.0,0.0,0.0,0.0,0.0,0.0,0.0,0.0,0.0,0.0,0.0,0.0,0.0,0.0,0.0,0.0,0.0,16,81.0,5.772368421052631,0.7697368421052632,0.75,27.537303216974674,0.7125,1.0,0.875,0.0,0.25,0.0,4.0,12.0,46.0,24.0,440.0,4.0,0.0,0.0,0.0,0.0,0.0,0.0,0.0,,2
00-0027265,2014,veteran,WR,11.20945475120245,9.12933734046142,102.33489382636522,61.49762820259923,831.709632268914,4.74119413954662,0.684781483880079,3.7727183386992413,0.0009504524419923346,0.3435535145051766,0.6009448576449804,13.524255431915362,0.04633018086275782,0.24201309532356474,0.07157973272407443,0.01125769855456768,4.168774828938668,142.06280968498226,146.23158451392092,veteran,Victor Cruz,WR,6.0,53.199999999999996,41.0,23.0,337.0,1.0,0.0,0.0,0.0,0.0,0.0,0.0,0.0,0.0,0.0,0.0,2.0,0.0,0.0,2.0,2.0,0.0,0.0,0.0,0.0,0.0,0.0,0.0,0.0,16,163.8,13.066107382550335,0.9354026845637585,0.875,27.805612594113622,0.93125,1.0,1.0,0.125,0.0,2.0,2.0,14.0,122.0,73.0,998.0,4.0,0.0,0.0,0.0,0.0,0.0,0.0,0.0,,2
00-0027322,2014,veteran,WR,8.72620010569553,4.739663377206706,41.35925106314239,24.506620672819583,299.37108044615877,1.7605292382170907,0.6456139534353327,3.605655851110005,0.0009792072702692555,0.20786063161308282,0.592530571586168,12.21592664459824,0.042566758172901245,0.06312145052908034,0.007162470236668923,0.0021223058026382828,0.6816014613215089,52.70431337583466,53.385914837156164,veteran,David Nelson,WR,6.0,10.5,16.0,8.0,65.0,0.0,0.0,0.0,0.0,0.0,0.0,0.0,0.0,0.0,0.0,0.0,0.0,0.0,0.0,0.0,0.0,0.0,0.0,0.0,0.0,0.0,0.0,0.0,0.0,16,72.3,6.44516129032258,0.7923387096774194,0.75,27.81656399726215,0.58125,1.0,1.0,0.0,0.25,0.0,4.0,12.0,61.0,36.0,423.0,2.0,0.0,0.0,0.0,0.0,0.0,0.0,0.0,,2
00-0027356,2014,veteran,WR,8.499672738941861,1.2906971968316328,10.970503778138506,6.237054243074718,80.0064042325567,0.4749103765481197,0.6178313418907581,3.7120676203532947,0.0005154154599988849,0.2002656445369463,0.5685294284756204,12.827594744969778,0.04328975096790891,0.005430613318866415,0.0001571912713645752,0.00014153609926859835,0.05056856857718804,13.942397769803177,13.992966338380365,veteran,Marlon Moore,WR,12.0,0.0,0.0,0.0,0.0,0.0,0.0,0.0,0.0,0.0,0.0,0.0,0.0,0.0,0.0,0.0,0.0,0.0,0.0,0.0,0.0,0.0,0.0,0.0,0.0,0.0,0.0,0.0,0.0,16,10.6,1.215841584158416,0.6875,0.6875,26.99520876112252,0.63125,1.0,0.75,0.0,0.3125,0.0,5.0,11.0,15.0,7.0,62.0,0.0,1.0,9.0,0.0,0.0,0.0,0.0,0.0,,2
00-0027518,2014,veteran,WR,3.1775806471742634,4.699743697021613,14.9338146183351,8.771461632493692,107.1518582616728,0.6728577318581728,0.30315274551219124,1.662081024983987,0.00042076527191731356,0.0806042602186645,0.587355733057277,12.215963855411626,0.04505598529608549,0.0611152398763387,0.006799040874509514,0.002045092732610278,0.2396022487093873,19.145587207255737,19.385189455965126,veteran,,,0.0,0.0,0.0,0.0,0.0,0.0,0.0,0.0,0.0,0.0,0.0,0.0,0.0,0.0,0.0,0.0,0.0,0.0,0.0,0.0,0.0,0.0,0.0,0.0,0.0,0.0,0.0,0.0,0.0,16,0.0,6.856249999999999,0.6875,0.0,26.70773442847365,0.3,0.0,0.75,0.0,1.0,0.0,16.0,0.0,0.0,0.0,0.0,0.0,0.0,0.0,0.0,0.0,0.0,0.0,0.0,,2
00-0027608,2014,veteran,WR,8.09561508981627,2.781810874165177,22.520470089906595,12.790888984991119,160.70597808544966,0.9521920213241064,0.8687831816034259,5.754758973849294,0.0,0.19087522750427624,0.5679672286558459,12.564097638094013,0.0422811787463916,0.02228403570081319,0.0013830290563713063,0.0006604532860868527,0.20789123320705552,28.372919871361542,28.5808111045686,veteran,,,0.0,0.0,0.0,0.0,0.0,0.0,0.0,0.0,0.0,0.0,0.0,0.0,0.0,0.0,0.0,0.0,0.0,0.0,0.0,0.0,0.0,0.0,0.0,0.0,0.0,0.0,0.0,0.0,0.0,16,19.6,2.981592039800995,0.6371268656716417,0.5625,26.119096509240247,0.628125,1.0,0.75,0.0,0.4375,0.0,7.0,9.0,27.0,12.0,113.0,0.0,2.0,23.0,0.0,0.0,0.0,0.0,0.0,,2
00-0027651,2014,veteran,WR,12.754511468381022,5.336949956002253,68.07018942000633,43.14168461066134,455.7656338796338,2.4879284247200038,5.759957711464286,24.261035494637273,0.010058531910734683,0.44246068930632365,0.633782349928083,10.564391214500771,0.0365494564642534,0.06811682047756493,0.008101291053927935,0.0023168434770085584,1.0828891958506766,83.67650960392956,84.75939879978024,veteran,Dexter McCluster,WR,13.0,49.800000000000004,36.0,26.0,197.0,1.0,40.0,131.0,0.0,0.0,0.0,0.0,0.0,0.0,0.0,1.0,0.0,0.0,0.0,0.0,0.0,0.0,0.0,0.0,0.0,0.0,0.0,0.0,0.0,16,102.1,6.292880258899676,0.966626213592233,0.9375,26.017796030116358,0.9656250000000001,1.0,1.0,0.0,0.0625,0.0,1.0,15.0,83.0,53.0,511.0,2.0,8.0,5.0,0.0,0.0,0.0,0.0,0.0,,2
00-0027681,2014,veteran,WR,11.25773892392537,5.824283829902472,65.5682667758822,38.53700252230386,514.9689597432825,3.1243391104573814,1.0197721533304593,6.64449701104147,6.605826350540739e-05,0.25044053568345986,0.5877386183476002,13.362973922147594,0.04765017079278049,0.10716143379053565,0.017082490380145997,0.003948543819838967,1.5837641205394424,89.67539687754274,91.25916099808218,veteran,Brandon LaFell,WR,16.0,175.6,119.0,74.0,953.0,7.0,2.0,13.0,0.0,0.0,0.0,0.0,0.0,0.0,0.0,1.0,2.0,0.0,0.0,2.0,2.0,0.0,0.0,0.0,0.0,0.0,0.0,0.0,0.0,16,119.7,8.0375,0.9036458333333333,0.9375,27.824777549623544,0.9,1.0,0.9375,0.0,0.0625,0.0,1.0,15.0,85.0,49.0,627.0,5.0,2.0,15.0,0.0,0.0,0.0,0.0,0.0,,2
00-0027685,2014,veteran,WR,12.241013193620642,5.8139369219481365,71.16847856844532,42.12969143111789,514.119192203231,3.099063591463461,0.9123113723533394,6.525893332410772,0.0007610804984491257,0.35865892735746513,0.5919712248815355,12.203250836617608,0.04354545233790517,0.09179877916016099,0.01320239371548392,0.003282987044162932,1.4465002557898858,91.01098444617966,92.45748470196955,veteran,Emmanuel Sanders,WR,16.0,259.8,141.0,101.0,1404.0,9.0,8.0,44.0,0.0,0.0,0.0,0.0,0.0,0.0,0.0,0.0,8.5,0.0,0.0,8.5,7.0,1.0,0.0,0.0,0.0,0.0,0.0,0.0,0.0,16,148.0,7.564590163934425,0.9661885245901639,1.0,27.460643394934976,0.9531250000000001,1.0,1.0,0.0,0.0,0.0,0.0,16.0,112.0,67.0,740.0,6.0,1.0,25.0,0.0,0.0,0.0,0.0,0.0,,2
00-0027687,2014,veteran,WR,0.251774390213253,3.5094303686438932,0.8835846910611879,0.522703511079833,6.508433622722276,0.03805866795988723,0.014895014760603188,0.08318639465297464,2.2591374716642394e-05,0.007673906231104255,0.5915714886957407,12.451482503487979,0.04307302779791109,0.03693494847304965,0.0030495547815708765,0.001157013299484156,0.011033586458580366,1.1336535008228563,1.1446870872814368,veteran,,,0.0,0.0,0.0,0.0,0.0,0.0,0.0,0.0,0.0,0.0,0.0,0.0,0.0,0.0,0.0,0.0,0.0,0.0,0.0,0.0,0.0,0.0,0.0,0.0,0.0,0.0,0.0,0.0,0.0,16,0.0,5.2,0.39843750000000006,0.0,28.689938398357288,0.15,0.0,0.4375,0.0,1.0,0.0,16.0,0.0,0.0,0.0,0.0,0.0,0.0,0.0,0.0,0.0,0.0,0.0,0.0,,2
00-0027690,2014,veteran,WR,12.556619845844121,8.874490272389973,111.43360067604254,69.3313927397322,931.2913458062293,6.886216541285247,0.7981644551385945,4.354728285900042,0.0011078239896317199,0.3796673619609178,0.6221767251449676,13.432462684000404,0.061796590072546544,0.24186352971844752,0.07149725445888225,0.01124791411713055,4.666105726896243,168.79491524680648,173.46102097370272,veteran,Eric Decker,WR,15.0,168.7,115.0,74.0,962.0,5.0,0.0,0.0,0.0,0.0,0.0,0.0,0.0,0.0,0.0,0.0,5.5,0.0,0.0,5.5,2.0,1.0,1.0,0.0,0.0,0.0,0.0,0.0,0.0,16,244.29999999999998,13.967500000000001,1.0,1.0,27.46611909650924,1.0,1.0,1.0,0.0,0.0,0.0,0.0,16.0,136.0,87.0,1288.0,11.0,0.0,0.0,0.0,0.0,0.0,0.0,0.0,,2
00-0027691,2014,veteran,WR,12.84820417813048,5.53603234072322,71.12807385034553,40.58059902560438,482.87577371421355,2.829362760100295,1.1034350867566785,6.640565085395624,0.0003121380522560218,0.28101133211017404,0.5705285807540147,11.899178063131657,0.03977842512723336,0.07482038497737273,0.009436632665001153,0.0025829873101921794,1.2095467544282752,85.65796011745806,86.86750687188633,veteran,Andre Roberts,WR,16.0,73.39999999999999,73.0,36.0,453.0,2.0,2.0,21.0,0.0,0.0,0.0,0.0,0.0,0.0,0.0,2.0,0.0,0.0,0.0,0.0,0.0,0.0,0.0,0.0,0.0,0.0,0.0,0.0,0.0,16,80.6,6.505732484076432,0.9820859872611465,1.0,26.64476386036961,0.9812500000000001,1.0,1.0,0.0,0.0,0.0,0.0,16.0,76.0,43.0,471.0,2.0,0.0,0.0,0.0,0.0,0.0,0.0,0.0,,2
00-0027702,2014,veteran,WR,7.30073328086587,6.895411698091773,50.34156166953045,27.650966821557063,355.55009147414336,2.3651058658839754,0.5084763558658253,2.801387183690127,0.0007057471697243948,0.1995249702253036,0.5492671642384306,12.858504867791885,0.04698117792629923,0.11985149369784906,0.020628084413868927,0.0045217360378526595,1.166927979960321,63.45645101443347,64.62337899439379,veteran,Mike Williams,WR,6.0,24.2,19.0,8.0,142.0,1.0,0.0,0.0,0.0,0.0,0.0,0.0,0.0,0.0,0.0,0.0,0.0,0.0,0.0,0.0,0.0,0.0,0.0,0.0,0.0,0.0,0.0,0.0,0.0,16,44.6,9.650338164251208,0.7871376811594203,0.375,27.290896646132786,0.646875,1.0,1.0,0.0,0.625,0.0,10.0,6.0,40.0,22.0,216.0,2.0,0.0,0.0,0.0,0.0,0.0,0.0,0.0,,2
00-0027709,2014,veteran,WR,9.102652618334432,1.7485918404371248,15.916824094753217,9.205399404932953,112.6134295563832,0.6521435123848652,1.5771553969311685,7.66247587907426,0.0,0.30325492584827135,0.5783439805662863,12.233410480379195,0.0409719620260072,0.009052521222808165,0.0003440944586644591,0.00024651453173675665,0.09158808679453952,19.93664146862487,20.02822955541941,veteran,,,0.0,0.0,0.0,0.0,0.0,0.0,0.0,0.0,0.0,0.0,0.0,0.0,0.0,0.0,0.0,0.0,0.0,0.0,0.0,0.0,0.0,0.0,0.0,0.0,0.0,0.0,0.0,0.0,0.0,16,15.9,1.9724550898203592,0.7675898203592815,0.8125,27.09924709103354,0.521875,1.0,0.8125,0.0,0.1875,0.0,3.0,13.0,24.0,13.0,99.0,0.0,5.0,15.0,0.0,0.0,0.0,0.0,0.0,,2
00-0027758,2014,veteran,WR,11.931794127262272,5.479828762644931,65.38418864852967,36.578412400352924,529.2331819394379,3.5576684646496335,0.7034673624245518,5.2067195331801654,0.0010669539467322794,0.2666595598495765,0.5594381937960391,14.468456863216176,0.054411755168726664,0.10136650070445326,0.015566047744595121,0.003693872822333278,1.5762295934987285,92.5522897393173,94.12851933281603,veteran,Riley Cooper,WR,16.0,101.2,95.0,55.0,577.0,3.0,0.0,0.0,0.0,0.0,0.0,0.0,0.0,0.0,0.0,1.0,0.0,0.0,0.0,0.0,0.0,0.0,0.0,0.0,0.0,0.0,0.0,0.0,0.0,16,163.8,8.057295373665482,0.9005782918149466,1.0,26.978781656399725,0.878125,1.0,1.0,0.0,0.0,0.0,0.0,16.0,84.0,47.0,835.0,8.0,0.0,18.0,0.0,0.0,0.0,0.0,0.0,,2
00-0027793,2014,veteran,WR,12.853886217569649,9.873976431278123,126.91896956261341,79.52782156959995,1044.046924143479,5.517978320647559,2.206022999535624,8.066543528532065,0.0,0.3773178208701766,0.6266031141260267,13.128071453959867,0.04347638764846223,0.27731290964940153,0.09256311647487245,0.01369237150920133,5.701242608819998,177.32849183414606,183.02973444296606,veteran,Antonio Brown,WR,16.0,330.4,181.0,129.0,1698.0,13.0,4.0,13.0,0.0,2.0,2.0,20.0,1.0,0.0,0.0,2.0,8.0,0.0,0.0,8.0,8.0,0.0,0.0,0.0,0.0,0.0,0.0,0.0,0.0,16,266.4,14.154635761589404,0.9515728476821191,1.0,26.143737166324435,0.9437500000000001,1.0,1.0,0.0,0.0,0.0,0.0,16.0,166.0,110.0,1499.0,8.0,7.0,4.0,0.0,1.0,15.0,0.0,0.0,,2
00-0027874,2014,veteran,WR,12.608402815447182,9.978505355082952,125.81301501298266,78.6541967762532,1138.706101351425,7.7063397291303,0.8063606155375562,4.485640907057798,0.0011191999699254834,0.4162030230313726,0.6251674102884893,14.47737244829657,0.061252325352310184,0.3225520143682084,0.12409675805294726,0.0172175416307104,6.848029997265706,199.05862014251352,205.90665013977923,veteran,Demaryius Thomas,WR,16.0,300.4,184.0,111.0,1619.0,11.0,0.0,0.0,0.0,0.0,0.0,0.0,0.0,0.0,0.0,0.0,15.0,0.0,0.0,15.0,10.0,2.0,1.0,0.0,0.0,0.0,0.0,0.0,0.0,16,280.5,16.210927152317883,0.9627483443708609,1.0,26.68583162217659,0.9437500000000001,1.0,1.0,0.0,0.0,0.0,0.0,16.0,142.0,92.0,1430.0,14.0,0.0,0.0,0.0,0.0,0.0,0.0,0.0,,2
00-0027891,2014,veteran,WR,13.085193171704152,6.671637585141052,87.29966657317246,54.90965100053093,735.3024132547383,4.381085672213074,1.4562855545671258,9.087774636431195,0.0,0.3343620880644652,0.6289789314888963,13.391132521451077,0.05018444908424656,0.15383115519351265,0.031668914977008654,0.006164853950105039,2.795837796177098,127.51163414653195,130.30747194270904,veteran,Golden Tate,WR,16.0,217.6,144.0,99.0,1331.0,4.0,5.0,30.0,0.0,0.0,0.0,0.0,0.0,0.0,0.0,0.0,8.0,0.0,0.0,8.0,5.0,2.0,0.0,0.0,0.0,0.0,0.0,0.0,0.0,16,156.9,8.959871382636655,0.9728697749196141,1.0,26.080766598220396,0.971875,1.0,1.0,0.0,0.0,0.0,0.0,16.0,98.0,64.0,898.0,5.0,3.0,31.0,0.0,0.0,0.0,0.0,0.0,,2
00-0027893,2014,veteran,WR,8.662153042622283,3.4894767957465573,30.226382043435894,17.927578564397507,222.59087303696583,1.1914668348702901,0.44798513634641635,2.5019289305672707,0.0006794622392356852,0.2619500173185406,0.593110301412694,12.416114771852707,0.039418109423685885,0.036518054138088465,0.002995484631022203,0.0011424199851258405,0.37503762672921476,38.10204722697214,38.477084853701356,veteran,Damian Williams,WR,1.0,1.9,1.0,1.0,14.0,0.0,0.0,0.0,0.0,0.0,0.0,0.0,0.0,0.0,0.0,0.0,0.0,0.0,0.0,0.0,0.0,0.0,0.0,0.0,0.0,0.0,0.0,0.0,0.0,16,23.3,3.9585585585585585,0.7263513513513514,0.5625,26.26694045174538,0.69375,1.0,0.9375,0.1875,0.25,3.0,7.0,9.0,23.0,15.0,178.0,0.0,0.0,0.0,0.0,0.0,0.0,0.0,0.0,,2
00-0027902,2014,veteran,WR,13.380973128489664,10.184741902406142,136.28175771669927,82.3000923591809,1108.026303020424,8.323517895819986,1.0800285583491571,4.809415049022728,0.0005556640994157266,0.5024027296815584,0.6038966163781454,13.46324495220107,0.06107580379996864,0.28524020702281067,0.09770217799662351,0.0142753712140056,6.159853590116306,201.37325388668836,207.53310747680467,veteran,Dez Bryant,WR,16.0,279.0,137.0,88.0,1320.0,16.0,0.0,0.0,0.0,0.0,0.0,0.0,0.0,0.0,0.0,0.0,7.0,0.0,0.0,7.0,4.0,2.0,0.0,0.0,0.0,0.0,0.0,0.0,0.0,16,251.4,15.3198738170347,0.9911277602523659,1.0,25.82340862422998,0.9906250000000001,1.0,1.0,0.0,0.0,0.0,0.0,16.0,160.0,93.0,1233.0,13.0,1.0,1.0,0.0,0.0,0.0,0.0,0.0,,2
00-0027912,2014,veteran,WR,3.1825983754058775,6.330658597073859,20.147943766296518,11.538958472435388,162.6659120386427,1.0093731523959402,0.2552290548234857,1.425415497916055,0.0003871077208558826,0.08107825361620381,0.572711469035255,14.097105248036375,0.05009807274151815,0.13051917333659258,0.02384948058135184,0.005020321590830532,0.5612004209270688,28.07501704334194,28.63621746426901,veteran,,,0.0,0.0,0.0,0.0,0.0,0.0,0.0,0.0,0.0,0.0,0.0,0.0,0.0,0.0,0.0,0.0,0.0,0.0,0.0,0.0,0.0,0.0,0.0,0.0,0.0,0.0,0.0,0.0,0.0,16,0.0,10.856666666666667,0.625,0.0,26.039698836413415,0.28125,0.0,0.625,0.0,1.0,0.0,16.0,0.0,0.0,0.0,0.0,0.0,0.0,0.0,0.0,0.0,0.0,0.0,0.0,,2
00-0027918,2014,veteran,WR,6.881940816658613,3.7843822953666924,26.04389498432425,16.066157736107304,201.36287897391972,1.087272243227701,0.9369050685041893,4.550906175225734,0.0,0.16148977610324272,0.6168876715935724,12.533356281033766,0.04174768189942892,0.046754281642303656,0.00442906257663448,0.0015079705544018488,0.3882365471935508,34.82511129012792,35.21334783732147,veteran,Andrew Hawkins,WR,15.0,128.4,112.0,63.0,824.0,2.0,3.0,15.0,0.0,0.0,0.0,0.0,0.0,0.0,0.0,0.0,1.0,0.0,0.0,1.0,1.0,0.0,0.0,0.0,0.0,0.0,0.0,0.0,0.0,16,26.200000000000003,5.01875,0.6947115384615383,0.5,28.479123887748116,0.6500000000000001,1.0,0.875,0.0,0.5,0.0,8.0,8.0,18.0,12.0,199.0,0.0,2.0,3.0,0.0,0.0,0.0,0.0,0.0,,2
00-0027942,2014,veteran,WR,13.232480095531002,11.302891074898563,149.56528117055024,85.74159268468733,1185.3257301860956,7.859496393963321,1.1989094520485748,7.9607803694944534,0.00011407931587842864,0.3368471156515908,0.5732720322099061,13.824395991162687,0.05254893603951499,0.31892230577049685,0.1213654354009376,0.016916156672200745,7.076767038387054,208.68341600627465,215.76018304466172,veteran,A.J. Green,WR,12.0,179.3,116.0,69.0,1041.0,6.0,2.0,2.0,0.0,0.0,0.0,0.0,0.0,0.0,0.0,2.0,8.5,0.0,0.0,8.5,5.0,1.0,1.0,0.0,0.0,0.0,0.0,0.0,0.0,16,268.1,15.97602523659306,0.9911277602523659,1.0,26.086242299794662,0.9906250000000001,1.0,1.0,0.0,0.0,0.0,0.0,16.0,178.0,98.0,1426.0,11.0,0.0,0.0,0.0,0.0,0.0,0.0,0.0,,2
00-0027944,2014,veteran,WR,7.647120607934536,9.559216993770141,73.10048526877766,45.11811331648247,632.3519725579953,3.621734828319273,1.151098982180804,6.725881813851191,0.0,0.2509678145435186,0.617206755202665,14.01547906319446,0.049544607193820804,0.28466646615233976,0.09732484385579133,0.014232705638144143,3.5109394615561413,107.69531543625449,111.20625489781062,veteran,Julio Jones,WR,15.0,258.9,163.0,104.0,1593.0,6.0,1.0,1.0,0.0,0.0,0.0,0.0,0.0,0.0,0.0,1.0,13.5,0.0,0.0,13.5,7.0,3.0,1.0,0.0,0.0,0.0,0.0,0.0,0.0,16,93.7,15.405263157894739,0.7625,0.3125,25.560574948665298,0.59375,1.0,1.0,0.0,0.6875,0.0,11.0,5.0,60.0,41.0,580.0,2.0,1.0,7.0,0.0,0.0,0.0,0.0,0.0,,2
00-0027964,2014,veteran,WR,6.855502779509717,3.280580424622402,22.490028219404046,11.714763721002928,153.56419982881053,0.9131236153990038,0.430165025876644,2.4024063207462345,0.0006524343510741105,0.16613594048631655,0.5208870174247097,13.108604107267777,0.04060126588063482,0.028086131072830485,0.0019839649421860488,0.0008529428135881644,0.22464086905750602,26.60442689298498,26.829067762042484,veteran,,,0.0,0.0,0.0,0.0,0.0,0.0,0.0,0.0,0.0,0.0,0.0,0.0,0.0,0.0,0.0,0.0,0.0,0.0,0.0,0.0,0.0,0.0,0.0,0.0,0.0,0.0,0.0,0.0,0.0,16,4.3,2.881987577639751,0.6657608695652173,0.25,25.059548254620122,0.503125,1.0,0.875,0.0,0.75,0.0,12.0,4.0,9.0,3.0,28.0,0.0,0.0,0.0,0.0,0.0,0.0,0.0,0.0,,2
00-0027982,2014,veteran,WR,4.758573810276211,5.332915382595418,25.377071472037695,14.900752998583263,186.95192972010562,1.219688501715552,0.6670486759503075,3.912935651478953,0.0005319062930696353,0.11968273556849027,0.5871738594818554,12.546475318252755,0.0480626183781487,0.08121523011814218,0.010790572904750264,0.002842277845455357,0.49054065130320246,33.61882001336485,34.109360664668046,veteran,,,0.0,0.0,0.0,0.0,0.0,0.0,0.0,0.0,0.0,0.0,0.0,0.0,0.0,0.0,0.0,0.0,0.0,0.0,0.0,0.0,0.0,0.0,0.0,0.0,0.0,0.0,0.0,0.0,0.0,16,0.0,8.025,0.7916666666666666,0.0,25.02943189596167,0.3375,0.0,1.0,0.0,1.0,0.0,16.0,0.0,0.0,0.0,0.0,0.0,0.0,0.0,0.0,0.0,0.0,0.0,0.0,,2
00-0027996,2014,veteran,WR,13.51082147168237,8.207129138944042,110.8850565913152,56.726013676085444,869.5092201600369,4.931233329560516,1.1316226619810905,6.2901804555342835,0.0004304854991914771,0.294928969236355,0.5115749174855755,15.328227100974743,0.044471576974843184,0.19305101598759664,0.04732789225336174,0.008271505207776106,3.790945526563309,144.94307185148537,148.7340173780487,veteran,Torrey Smith,WR,15.0,167.20000000000002,92.0,49.0,767.0,11.0,0.0,0.0,0.0,0.0,0.0,0.0,0.0,0.0,0.0,0.0,0.0,0.0,0.0,0.0,0.0,0.0,0.0,0.0,0.0,0.0,0.0,0.0,0.0,16,174.8,10.625236593059938,0.9911277602523659,1.0,25.596167008898014,0.9906250000000001,1.0,1.0,0.0,0.0,0.0,0.0,16.0,137.0,65.0,1128.0,4.0,0.0,0.0,0.0,0.0,0.0,0.0,0.0,,2
00-0027997,2014,veteran,WR,13.781275742833891,5.977295966959575,82.37476391719885,42.625901033683974,515.451851335778,3.0744984227880567,1.0629552746845494,6.038739099164934,0.0007322806463212375,0.30024817341969723,0.5174631040706898,12.092456436954986,0.03732330481551934,0.07415402823732818,0.009300040511385863,0.002556271902441085,1.2846441205633103,91.31289743410314,92.59754155466645,veteran,Greg Little,WR,4.0,9.9,12.0,6.0,69.0,0.0,0.0,0.0,0.0,0.0,0.0,0.0,0.0,0.0,0.0,0.0,0.0,0.0,0.0,0.0,0.0,0.0,0.0,0.0,0.0,0.0,0.0,0.0,0.0,16,80.0,6.0246875,1.0,1.0,25.256673511293634,1.0,1.0,1.0,0.0,0.0,0.0,0.0,16.0,99.0,41.0,465.0,2.0,0.0,0.0,0.0,0.0,0.0,0.0,0.0,,2
00-0028002,2014,veteran,WR,8.941492597749683,7.7850548178951,69.61001002728455,46.29783489759987,592.0236567272851,3.6527714617321556,1.7419720260274014,17.524676147504337,0.0,0.297117824270052,0.6651031206496427,12.78728601535482,0.052474801545070955,0.20217888488134003,0.051441286941164364,0.008796670299661469,2.65503455693103,105.4261438581317,108.08117841506272,veteran,Randall Cobb,WR,16.0,252.9,127.0,91.0,1287.0,12.0,11.0,37.0,0.0,0.0,0.0,0.0,0.0,0.0,0.0,2.0,5.0,0.0,0.0,5.0,5.0,0.0,0.0,0.0,0.0,0.0,0.0,0.0,0.0,16,92.6,12.078109452736317,0.7527985074626865,0.375,24.027378507871322,0.628125,1.0,0.9375,0.0,0.625,0.0,10.0,6.0,47.0,31.0,433.0,4.0,4.0,78.0,0.0,0.0,0.0,0.0,0.0,,2
00-0028016,2014,veteran,WR,11.234412397778673,4.529748457415467,50.88906222880714,30.423152085647317,347.1947839545289,2.4413819591199126,0.636180378974854,3.351948182025919,0.0008829958300247333,0.25323710796208493,0.5978328299479935,11.412189735537773,0.04797459124208231,0.05185623478185928,0.005224010778655258,0.0016956223566108833,0.7087060057723426,64.4133647702546,65.12207077602694,veteran,Austin Pettis,WR,4.0,23.8,18.0,12.0,118.0,1.0,0.0,0.0,0.0,0.0,0.0,0.0,0.0,0.0,0.0,0.0,0.0,0.0,0.0,0.0,0.0,0.0,0.0,0.0,0.0,0.0,0.0,0.0,0.0,16,82.9,5.291044776119403,0.8400186567164177,0.875,26.31895961670089,0.8375000000000001,1.0,0.875,0.0,0.125,0.0,2.0,14.0,63.0,38.0,399.0,4.0,0.0,0.0,0.0,0.0,0.0,0.0,0.0,,2
00-0028017,2014,veteran,WR,8.894449241579235,4.872988501583018,43.34254888212941,26.37965700384401,340.7484087444589,1.9985384730099973,0.6250750581972914,3.2866851453521697,0.0006398261596320281,0.20814960121506454,0.6086318798551468,12.917090191688448,0.04611031248865975,0.07752372616306628,0.0099994759259436,0.002691956244903227,0.8708275303357174,59.17210848349075,60.04293601382647,veteran,Leonard Hankerson,WR,1.0,0.0,1.0,0.0,0.0,0.0,0.0,0.0,0.0,0.0,0.0,0.0,0.0,0.0,0.0,0.0,0.0,0.0,0.0,0.0,0.0,0.0,0.0,0.0,0.0,0.0,0.0,0.0,0.0,16,70.5,6.62122641509434,0.7364386792452831,0.625,26.31895961670089,0.6625,1.0,0.9375,0.0,0.375,0.0,6.0,10.0,50.0,30.0,375.0,3.0,0.0,0.0,0.0,0.0,0.0,0.0,0.0,,2
00-0028020,2014,veteran,WR,12.144641082833765,4.184172651275256,50.81527507834695,29.712057366836127,372.1687289334039,1.9913905492856208,1.1051298995993617,6.171982602798836,0.001676158370681838,0.2853700079701779,0.5847072031200481,12.525848491017305,0.039188817657983675,0.05103486909826192,0.005092493835181607,0.0016651734079057893,0.7530157994344213,64.0777600670358,64.83077586647022,veteran,Vincent Brown,WR,6.0,17.8,21.0,12.0,118.0,0.0,0.0,0.0,0.0,0.0,0.0,0.0,0.0,0.0,0.0,0.0,0.0,0.0,0.0,0.0,0.0,0.0,0.0,0.0,0.0,0.0,0.0,0.0,0.0,16,74.7,4.781067961165049,0.9453883495145631,1.0,25.598904859685145,0.64375,1.0,1.0,0.0,0.0,0.0,0.0,16.0,69.0,41.0,472.0,1.0,0.0,0.0,0.0,0.0,0.0,0.0,0.0,,2
00-0028021,2014,veteran,WR,10.180609124355506,3.328612042132628,33.88729812757505,20.681750327702108,254.89409733990698,1.4925547760638815,0.8822221016921215,8.088472399093032,0.06472697661246214,0.31168413681565815,0.6103098054569533,12.324590196724783,0.04404466742803988,0.03474891183555373,0.0027702116033943673,0.0010807789727407997,0.4180747277259247,45.3594543801778,45.777529107903725,veteran,Jerrel Jernigan,WR,2.0,6.8,9.0,6.0,40.0,0.0,1.0,-2.0,0.0,0.0,0.0,0.0,0.0,0.0,0.0,0.0,0.0,0.0,0.0,0.0,0.0,0.0,0.0,0.0,0.0,0.0,0.0,0.0,0.0,16,69.1,3.8714285714285714,0.6961206896551725,0.8125,25.215605749486652,0.634375,1.0,0.8125,0.0,0.1875,0.0,3.0,13.0,44.0,29.0,329.0,2.0,2.0,57.0,1.0,0.0,0.0,0.0,0.0,,2
00-0028045,2014,veteran,WR,11.377946241470084,4.381065764873997,49.84753075308135,25.657460775597382,330.9034256101484,1.9875405492493716,0.9327070134259785,5.209026977245422,0.0014146433541562596,0.3476620226424064,0.5147187912414569,12.896967026638434,0.03987239727268759,0.046219976379156404,0.0043488601561544405,0.001488524643500629,0.6339827588723606,57.678382756874434,58.3123655157468,veteran,Kris Durham,WR,4.0,8.4,11.0,6.0,54.0,0.0,0.0,0.0,0.0,0.0,0.0,0.0,0.0,0.0,0.0,0.0,0.0,0.0,0.0,0.0,0.0,0.0,0.0,0.0,0.0,0.0,0.0,0.0,0.0,16,78.0,4.885922330097087,0.8871359223300971,1.0,26.458590006844627,0.64375,1.0,1.0,0.0,0.0,0.0,0.0,16.0,85.0,38.0,490.0,2.0,0.0,0.0,0.0,0.0,0.0,0.0,0.0,,2
00-0028049,2014,veteran,WR,6.341845752067854,2.7237172916431853,17.273394935841097,9.392531536098524,118.42943319053768,0.6679613142150927,0.3781355936359716,2.2123541399103166,0.000431667263287599,0.1532632640511672,0.543757123077738,12.608893857356264,0.03866994975198068,0.019823020880246747,0.0011531326628698836,0.0005806205872567055,0.14404843739164747,20.46427586186201,20.608324299253656,veteran,,,0.0,0.0,0.0,0.0,0.0,0.0,0.0,0.0,0.0,0.0,0.0,0.0,0.0,0.0,0.0,0.0,0.0,0.0,0.0,0.0,0.0,0.0,0.0,0.0,0.0,0.0,0.0,0.0,0.0,16,18.2,2.4224242424242424,0.5693181818181817,0.375,,0.515625,1.0,0.8125,0.0,0.625,0.0,10.0,6.0,24.0,12.0,122.0,0.0,0.0,0.0,0.0,0.0,0.0,0.0,0.0,,2
00-0028052,2014,veteran,WR,10.458872526168125,7.472451138429237,78.15341391485128,42.70038091679259,562.4970432458038,3.2561849747054965,0.6144749166774998,3.1182360352814675,0.0007760645097460115,0.276641389002292,0.5463661633938981,13.173115348593836,0.041664014552878444,0.14264165892042124,0.027780798159483686,0.005605911808880399,2.0449677015117484,96.90020184379169,98.94516954530344,veteran,Cecil Shorts,WR,13.0,93.48,110.0,53.0,557.0,1.0,0.0,0.0,0.0,2.0,2.0,32.0,1.0,0.0,0.0,1.0,2.0,0.0,0.0,2.0,2.0,0.0,0.0,0.0,0.0,0.0,0.0,0.0,0.0,16,129.7,9.6136186770428,0.8110408560311283,0.8125,26.694045174537987,0.8031250000000001,1.0,0.875,0.0,0.1875,0.0,3.0,13.0,125.0,66.0,777.0,3.0,0.0,0.0,0.0,0.0,0.0,0.0,0.0,,2
00-0028061,2014,veteran,WR,9.960646310035322,3.038548868714552,30.265910577023604,16.879376225950878,230.9014714694979,1.2175695120507009,0.543970693237718,3.0379936841024335,0.0008250442153511072,0.3059452043087401,0.5577025737585068,13.679502629635257,0.04022907253862767,0.029990981632032235,0.0021985326747440822,0.0009173664633548317,0.34985289584504253,38.5321115573143,38.88196445315934,veteran,,,0.0,0.0,0.0,0.0,0.0,0.0,0.0,0.0,0.0,0.0,0.0,0.0,0.0,0.0,0.0,0.0,0.0,0.0,0.0,0.0,0.0,0.0,0.0,0.0,0.0,0.0,0.0,0.0,0.0,16,44.0,3.1050505050505044,0.693181818181818,0.75,24.941820670773442,0.6187500000000001,1.0,0.75,0.0,0.25,0.0,4.0,12.0,36.0,19.0,305.0,0.0,0.0,0.0,0.0,0.0,0.0,0.0,0.0,,2
00-0028086,2014,veteran,WR,11.360584423709508,7.233446154649561,82.17617571425325,43.43845791810369,609.4620393404641,4.053708758297747,0.8333254871470004,4.847932032938793,0.017671874998762504,0.2554048989764066,0.5286015994361903,14.030471350744264,0.0493294890284684,0.14202302997937785,0.02757314017729816,0.00557553043892496,2.210017670924945,107.06770009821837,109.27771776914331,veteran,Denarius Moore,WR,10.0,15.6,27.0,12.0,115.0,0.0,1.0,1.0,0.0,0.0,0.0,0.0,0.0,0.0,0.0,1.0,0.0,0.0,0.0,0.0,0.0,0.0,0.0,0.0,0.0,0.0,0.0,0.0,0.0,16,123.5,9.490073529411765,0.853860294117647,0.8125,25.727583846680357,0.85,1.0,0.9375,0.1875,0.0,3.0,3.0,13.0,86.0,46.0,695.0,5.0,0.0,0.0,0.0,0.0,0.0,0.0,0.0,,2
00-0028091,2014,veteran,WR,11.032424400661228,6.015236895830698,66.3626463053203,39.371490067211454,504.4946752553442,2.672760661701333,1.4958709427751882,6.427276177221821,0.0,0.391926089988125,0.5932778793369944,12.813705409526447,0.04027507657552616,0.10709745068606685,0.017065396685279094,0.003945707869952797,1.5510150239587277,86.03065196709407,87.5816669910528,veteran,Jeremy Kerley,WR,16.0,74.5,75.0,38.0,409.0,1.0,4.0,86.0,0.0,1.0,0.0,0.0,0.0,0.0,0.0,0.0,0.0,0.0,0.0,0.0,0.0,0.0,0.0,0.0,0.0,0.0,0.0,0.0,0.0,16,92.9,7.192592592592593,0.8583333333333334,0.75,25.752224503764545,0.84375,1.0,1.0,0.1875,0.0625,3.0,4.0,12.0,72.0,43.0,523.0,3.0,4.0,11.0,0.0,1.0,0.0,0.0,0.0,,2
00-0028114,2014,veteran,WR,10.35559511593609,1.9971038888385046,20.68119927727299,12.192600754690712,152.473426596311,0.9878038326900939,0.6923050656216633,3.8774842482953313,0.0007356080698340174,0.30680528359472464,0.5895499864985789,12.50540632503297,0.04776337288019909,0.012590515789180008,0.0005716192538055569,0.0003531615557485936,0.14657586630656755,27.049017539176102,27.19559340548267,veteran,Dwayne Harris,WR,16.0,11.8,12.0,7.0,116.0,0.0,4.0,7.0,0.0,0.0,0.0,0.0,0.0,0.0,0.0,2.0,0.0,0.0,0.0,0.0,0.0,0.0,0.0,0.0,0.0,0.0,0.0,0.0,0.0,16,29.1,2.3161417322834645,0.825787401574803,0.8125,26.9596167008898,0.7937500000000001,1.0,0.9375,0.1875,0.0,3.0,3.0,13.0,14.0,9.0,80.0,2.0,1.0,6.0,0.0,0.0,0.0,0.0,0.0,,2
00-0028116,2014,veteran,WR,9.937055853400977,3.767191344623066,37.434790801968134,19.670024056760017,290.4626589674231,1.7706374975026054,1.0985937944499304,4.778394661460761,0.00010453402322000995,0.2349311435657803,0.5254476820991307,14.766766839189478,0.0472992491628807,0.046665350154406926,0.004415673044927598,0.0015047311816872501,0.5594395710131201,49.51370729329179,50.07314686430491,veteran,Aldrick Robinson,WR,2.0,1.1,3.0,1.0,6.0,0.0,0.0,0.0,0.0,0.0,0.0,0.0,0.0,0.0,0.0,0.0,0.0,0.0,0.0,0.0,0.0,0.0,0.0,0.0,0.0,0.0,0.0,0.0,0.0,16,57.1,4.668527918781726,0.7439720812182742,0.8125,25.935660506502394,0.615625,1.0,0.8125,0.0,0.1875,0.0,3.0,13.0,46.0,18.0,365.0,2.0,3.0,-4.0,0.0,0.0,0.0,0.0,0.0,,2
00-0028237,2014,veteran,WR,8.296766307021752,1.8348013175675397,15.222917751673481,8.956772863612574,110.72350084869677,0.6422480471114432,0.6596003634936617,3.683767826532,0.0010004205577783126,0.2067621527179218,0.5883742531964965,12.361986011559768,0.042189549834547306,0.010446949584480524,0.0004288586303667379,0.00028812435373622787,0.09679410993664857,19.365079799908653,19.461873909845302,veteran,Chris Hogan,WR,13.0,83.1,61.0,41.0,426.0,4.0,0.0,0.0,0.0,0.0,0.0,0.0,0.0,0.0,0.0,2.0,0.0,0.0,0.0,0.0,0.0,0.0,0.0,0.0,0.0,0.0,0.0,0.0,0.0,16,13.3,1.2090909090909092,0.6875,0.6875,25.853524982888434,0.37812500000000004,1.0,0.6875,0.0,0.3125,0.0,5.0,11.0,17.0,10.0,83.0,0.0,0.0,0.0,0.0,0.0,0.0,0.0,0.0,,2
00-0028263,2014,veteran,WR,7.285813115971862,4.331239023107694,31.55659808296719,17.43354135370164,241.82801600184337,1.2824246021523686,0.4012111890939486,2.2407035408541534,0.0006085198611084833,0.1799166507726385,0.5524531290687974,13.87142239752088,0.040638873644765997,0.0593253422448237,0.0064814192404991,0.0019766503903504216,0.5318699812850792,40.46200806165615,40.993878042941226,veteran,Andre Holmes,WR,16.0,117.8,98.0,47.0,693.0,4.0,0.0,0.0,0.0,0.0,0.0,0.0,0.0,0.0,0.0,0.0,1.0,0.0,0.0,1.0,1.0,0.0,0.0,0.0,0.0,0.0,0.0,0.0,0.0,16,62.6,5.232835820895523,0.5578358208955223,0.625,26.209445585215605,0.41875,1.0,0.625,0.0,0.375,0.0,6.0,10.0,52.0,25.0,431.0,1.0,0.0,0.0,0.0,0.0,0.0,0.0,0.0,,2
00-0028307,2014,veteran,WR,9.311528207039693,2.3364442930546416,21.75586693895521,13.277750586197708,179.61784065475254,1.0733405839922883,0.5504093236386739,3.0739524567634198,0.0008348097318267734,0.22271788942482998,0.6103066645633451,13.527731183734257,0.049335684346846514,0.021093096164460423,0.0012698541306966507,0.0006216786592290758,0.2257229404866379,30.907671187745482,31.13339412823212,veteran,Drew Davis,WR,2.0,0.0,0.0,0.0,0.0,0.0,0.0,0.0,0.0,0.0,0.0,0.0,0.0,0.0,0.0,0.0,0.0,0.0,0.0,0.0,0.0,0.0,0.0,0.0,0.0,0.0,0.0,0.0,0.0,16,39.599999999999994,2.8199999999999994,0.6833333333333333,0.75,25.65639972621492,0.5625,1.0,0.75,0.0,0.25,0.0,4.0,12.0,17.0,12.0,216.0,2.0,0.0,0.0,0.0,0.0,0.0,0.0,0.0,,2
00-0028400,2014,veteran,WR,3.1197300855071717,4.04394871273553,12.61602846336903,7.455613498508146,94.66326307125456,0.5447740608462283,0.2575735681274622,1.4385092485506357,0.00039066366084181527,0.09468205706957229,0.5909635920809561,12.696911272318031,0.0431811058787632,0.050089856009109146,0.004942851318960979,0.0016302535442286558,0.18956927578013674,16.419608214137867,16.609177489918004,veteran,,,0.0,0.0,0.0,0.0,0.0,0.0,0.0,0.0,0.0,0.0,0.0,0.0,0.0,0.0,0.0,0.0,0.0,0.0,0.0,0.0,0.0,0.0,0.0,0.0,0.0,0.0,0.0,0.0,0.0,16,0.0,4.855555555555556,0.5625,0.0,24.980150581793293,0.16874999999999998,0.0,0.5625,0.0,1.0,0.0,16.0,0.0,0.0,0.0,0.0,0.0,0.0,0.0,0.0,0.0,0.0,0.0,0.0,,2
00-0028417,2014,veteran,WR,0.8952443066392526,1.7533820361762218,1.5697052852503026,0.8787771411098664,11.432954424826281,0.06791787178885794,0.049076286100341114,0.2740836024173195,7.4434351815913e-05,0.023664601465761843,0.5598357534801433,13.01007262249316,0.043267913045236306,0.009612138415034029,0.00037731472545751927,0.00026314302253672327,0.00958305006586885,1.9707170071918123,1.9803000572576812,veteran,,,0.0,0.0,0.0,0.0,0.0,0.0,0.0,0.0,0.0,0.0,0.0,0.0,0.0,0.0,0.0,0.0,0.0,0.0,0.0,0.0,0.0,0.0,0.0,0.0,0.0,0.0,0.0,0.0,0.0,16,0.0,1.5076923076923079,0.3509615384615385,0.0,26.822724161533195,0.12187499999999998,0.0,0.375,0.0,1.0,0.0,16.0,0.0,0.0,0.0,0.0,0.0,0.0,0.0,0.0,0.0,0.0,0.0,0.0,,2
00-0028434,2014,veteran,WR,13.097667093243924,5.798784723742203,75.95055185696381,47.16339989136831,652.2440461884231,3.721752887255898,1.0427673825427362,5.168479107732036,0.0005722227902274623,0.2875873769512854,0.6209750783666486,13.829453510364818,0.049002315273034516,0.12467627697421649,0.02205764605404226,0.0047453214480084405,2.1906292087009267,111.08172838167386,113.27235759037478,veteran,Doug Baldwin,WR,16.0,136.3,98.0,66.0,825.0,3.0,1.0,8.0,0.0,0.0,0.0,0.0,0.0,0.0,0.0,0.0,2.0,0.0,0.0,2.0,2.0,0.0,0.0,0.0,0.0,0.0,0.0,0.0,0.0,16,133.4,7.367857142857143,0.965909090909091,1.0,25.94387405886379,0.9625,1.0,1.0,0.0,0.0,0.0,0.0,16.0,73.0,50.0,778.0,5.0,2.0,6.0,0.0,0.0,0.0,0.0,0.0,,2
00-0028532,2014,veteran,WR,3.0220260100148764,2.8408730137575033,8.585192138724524,4.960611242702274,72.7841545038449,0.4122922743604246,0.3621317172824281,1.9317215601082924,0.0004573621575244351,0.07832818011617382,0.5778101599295432,14.672416551673985,0.04802365138698894,0.032265892468202335,0.0024655827669584087,0.0009950620471816673,0.11469915592896297,12.271734686621805,12.386433842550769,veteran,Joseph Morgan,WR,4.0,17.9,10.0,4.0,92.0,0.0,1.0,67.0,0.0,0.0,0.0,0.0,0.0,0.0,0.0,0.0,0.0,0.0,0.0,0.0,0.0,0.0,0.0,0.0,0.0,0.0,0.0,0.0,0.0,16,0.0,5.636363636363637,0.6875,0.0,26.428473648186174,0.20625,0.0,0.6875,0.0,1.0,0.0,16.0,0.0,0.0,0.0,0.0,0.0,0.0,0.0,0.0,0.0,0.0,0.0,0.0,,2
00-0028606,2014,veteran,WR,5.556164021080555,4.621049210826137,25.675307364834875,15.551338201167109,191.21823392966567,1.1020642878792535,0.30839556234480375,1.7223423656011196,0.0004677457405620573,0.14287231374596307,0.6056923868598495,12.295934372729093,0.042923119564623025,0.06349540508640304,0.007231077955197854,0.0021367563932392637,0.4368008059853161,33.399174304337215,33.83597511032253,veteran,,,0.0,0.0,0.0,0.0,0.0,0.0,0.0,0.0,0.0,0.0,0.0,0.0,0.0,0.0,0.0,0.0,0.0,0.0,0.0,0.0,0.0,0.0,0.0,0.0,0.0,0.0,0.0,0.0,0.0,16,39.9,5.7,0.4375,0.4375,25.527720739219713,0.24062500000000003,1.0,0.4375,0.0,0.5625,0.0,9.0,7.0,34.0,22.0,229.0,1.0,0.0,0.0,0.0,0.0,0.0,0.0,0.0,,2
00-0028905,2014,veteran,WR,5.99013754193788,2.9002728374427007,17.37303320542822,10.359825217949481,127.96016020967302,0.7225419630580983,0.2693357193613187,1.5041990763375495,0.00040850339918841296,0.15271090131351683,0.5963164345252355,12.351575197230996,0.04158985679209658,0.025645841612419975,0.0017213989740881802,0.0007712806518375522,0.1783293979420429,22.158629533692483,22.336958931634527,veteran,Chris Owusu,WR,6.0,25.1,6.0,6.0,78.0,1.0,1.0,23.0,1.0,0.0,0.0,0.0,0.0,0.0,0.0,0.0,0.0,0.0,0.0,0.0,0.0,0.0,0.0,0.0,0.0,0.0,0.0,0.0,0.0,16,17.9,2.4078651685393258,0.39536516853932585,0.4375,24.65160848733744,0.278125,1.0,0.4375,0.0625,0.5,1.0,9.0,7.0,20.0,13.0,114.0,0.0,0.0,0.0,0.0,0.0,0.0,0.0,0.0,,2
00-0028930,2014,veteran,WR,2.953408304868084,3.4750882110295875,10.263354382603957,5.978895626993068,73.36698175619746,0.42401778032219073,0.11074170775136248,0.6184756143992007,0.0001679627349674824,0.07699481573211316,0.5825479082284342,12.270992225548433,0.04131376200366682,0.034231760843792945,0.0027056467859913357,0.0010628489043701195,0.11936473985996918,12.779118377434925,12.898483117294894,veteran,,,0.0,0.0,0.0,0.0,0.0,0.0,0.0,0.0,0.0,0.0,0.0,0.0,0.0,0.0,0.0,0.0,0.0,0.0,0.0,0.0,0.0,0.0,0.0,0.0,0.0,0.0,0.0,0.0,0.0,16,10.5,3.5017241379310344,0.2801724137931035,0.125,25.645448323066393,0.18125,1.0,0.375,0.0,0.875,0.0,14.0,2.0,14.0,9.0,60.0,0.0,0.0,0.0,0.0,0.0,0.0,0.0,0.0,,2
00-0028995,2014,veteran,WR,11.10783636096074,5.164085722466689,57.3618191591337,29.121217701256107,379.6774374133983,2.375148300362971,0.6685300995203102,3.7336390456746917,0.0010139643518557982,0.3411816019868428,0.5076759790422223,13.037828339060884,0.041406432626793305,0.06268739427977775,0.007083176455166107,0.00210555563205328,0.8611157998439843,66.47632688085064,67.33744268069462,veteran,,,0.0,0.0,0.0,0.0,0.0,0.0,0.0,0.0,0.0,0.0,0.0,0.0,0.0,0.0,0.0,0.0,0.0,0.0,0.0,0.0,0.0,0.0,0.0,0.0,0.0,0.0,0.0,0.0,0.0,16,51.2,4.471717171717171,0.7291666666666666,0.75,23.353867214236825,0.61875,1.0,0.75,0.0625,0.1875,1.0,4.0,12.0,59.0,24.0,342.0,1.0,0.0,0.0,0.0,0.0,0.0,0.0,0.0,,2
00-0029000,2014,veteran,WR,10.84297791444477,3.9678376255233885,43.02317574165308,27.494363171803343,313.1654423656188,1.7942405406258501,0.7333374782832642,4.09557841081444,0.001112258163682674,0.25547759630642985,0.6390593603992035,11.390168974227542,0.04170404693972296,0.04561555670183711,0.004258835944704968,0.001466574510039224,0.5956802400521282,55.73444526366933,56.330125503721455,veteran,Cole Beasley,WR,15.0,80.5,49.0,37.0,420.0,4.0,0.0,0.0,0.0,0.0,0.0,0.0,0.0,0.0,0.0,2.0,0.0,0.0,0.0,0.0,0.0,0.0,0.0,0.0,0.0,0.0,0.0,0.0,0.0,16,68.3,4.322277227722772,0.7858910891089109,0.875,25.349760438056126,0.6312500000000001,1.0,0.875,0.0,0.125,0.0,2.0,14.0,54.0,39.0,368.0,2.0,0.0,0.0,0.0,0.0,0.0,0.0,0.0,,2
00-0029033,2014,veteran,WR,6.891678966958942,5.133738355387433,35.38007664569397,20.970396252705658,258.8764422692536,1.591181119106412,0.4238662767557378,2.3672287637841785,0.0006428809935297536,0.17582034469176624,0.5927176603575255,12.344852197814461,0.04497393080973077,0.07474837057003889,0.009421829976149982,0.0025800973662482574,0.6481025199906926,45.80886854087272,46.45697106086342,veteran,Griff Whalen,WR,9.0,1.2999999999999998,3.0,2.0,23.0,0.0,0.0,0.0,0.0,0.0,0.0,0.0,0.0,0.0,0.0,1.0,0.0,0.0,0.0,0.0,0.0,0.0,0.0,0.0,0.0,0.0,0.0,0.0,0.0,16,49.9,6.2375,0.5,0.5,24.503764544832308,0.275,1.0,0.5,0.0,0.5,0.0,8.0,8.0,40.0,24.0,259.0,2.0,0.0,0.0,0.0,0.0,0.0,0.0,0.0,,2
00-0029051,2014,veteran,WR,11.76204370193367,5.339588750130366,62.80447622938675,37.37911227090842,486.96012427476046,2.645751368362867,0.8671928106252227,4.843140107232143,0.0013152774972892576,0.2761923190209929,0.5951663721290364,13.027600033555476,0.04212679616496662,0.08942115476275311,0.01264202478221338,0.003182721402783908,1.3496902186121076,83.19989781077241,84.54958802938452,veteran,Jarrett Boykin,WR,8.0,3.8000000000000003,12.0,3.0,23.0,0.0,0.0,0.0,0.0,0.0,0.0,0.0,0.0,0.0,0.0,0.0,0.0,0.0,0.0,0.0,0.0,0.0,0.0,0.0,0.0,0.0,0.0,0.0,0.0,16,118.60000000000001,6.453140096618358,0.8360507246376812,0.9375,24.824093086926762,0.646875,1.0,0.9375,0.0,0.0625,0.0,1.0,15.0,83.0,49.0,681.0,3.0,0.0,0.0,0.0,0.0,0.0,0.0,0.0,,2
00-0029055,2014,veteran,WR,2.715381004493601,2.4135593599269725,6.553733239163435,3.560548069363225,45.53875316851231,0.2765773018828976,0.22418938657612963,1.2520636661641673,0.0003400296354879504,0.07099560630070928,0.543285474008356,12.789815579334824,0.04220148910397242,0.016138042049768587,0.0008385497343549566,0.00046330525029500847,0.04975250641351294,7.9788684946581565,8.02862100107167,veteran,,,0.0,0.0,0.0,0.0,0.0,0.0,0.0,0.0,0.0,0.0,0.0,0.0,0.0,0.0,0.0,0.0,0.0,0.0,0.0,0.0,0.0,0.0,0.0,0.0,0.0,0.0,0.0,0.0,0.0,16,0.0,1.7555555555555555,0.5625,0.0,25.675564681724847,0.16874999999999998,0.0,0.5625,0.0,1.0,0.0,16.0,0.0,0.0,0.0,0.0,0.0,0.0,0.0,0.0,0.0,0.0,0.0,0.0,,2
00-0029129,2014,veteran,WR,12.384901966470178,6.324050079255366,78.32274026262567,45.8732250203092,632.0614495417943,3.349524542595748,1.1895235767031416,7.169927872072178,0.0007772318433869956,0.41029198727303867,0.5856948424747487,13.778439367669598,0.042765671009012005,0.1301777977326774,0.02374295779710699,0.005004126010829963,2.177271790340992,106.14097692362998,108.31824871397097,veteran,Rod Streater,WR,3.0,18.9,13.0,9.0,84.0,1.0,0.0,0.0,0.0,0.0,0.0,0.0,0.0,0.0,0.0,0.0,0.0,0.0,0.0,0.0,0.0,0.0,0.0,0.0,0.0,0.0,0.0,0.0,0.0,16,143.5,8.119924812030074,0.9788533834586466,1.0,26.559890485968516,0.83125,1.0,1.0,0.0,0.0,0.0,0.0,16.0,99.0,60.0,888.0,4.0,2.0,17.0,0.0,0.0,0.0,0.0,0.0,,2
00-0029137,2014,veteran,WR,12.875822879043863,9.538307638512729,122.81355971932103,71.80050654451024,1038.7140523536762,5.5912570479918005,3.2768519413152717,19.716179582074336,0.0,0.385883332808311,0.5846301231606967,14.466667469953867,0.045526382109354196,0.27454062697020937,0.09080360151439312,0.013491755593434388,5.636128031484796,174.51905208816436,180.15518011964915,veteran,Alshon Jeffery,WR,16.0,222.1,145.0,85.0,1133.0,10.0,6.0,33.0,0.0,0.0,0.0,0.0,0.0,0.0,0.0,0.0,3.0,0.0,0.0,3.0,3.0,0.0,0.0,0.0,0.0,0.0,0.0,0.0,0.0,16,251.1,13.39957627118644,0.9046610169491526,1.0,24.54483230663929,0.7375,1.0,1.0,0.0,0.0,0.0,0.0,16.0,150.0,89.0,1421.0,7.0,16.0,105.0,0.0,0.0,0.0,0.0,0.0,,2
00-0029155,2014,veteran,WR,8.38424056752659,4.8108442003313545,40.33527510846816,23.413503907435267,308.09494658528854,1.731039806304663,0.6113754391564891,3.4144389502268497,0.0009272774723975316,0.2699456921661904,0.5804721511003091,13.158856863258682,0.04291627617884379,0.07175827348814737,0.008815970641439309,0.0024606952839897043,0.7537735781248068,52.709601625599156,53.46337520372396,veteran,Mike Brown,WR,5.0,10.3,15.0,7.0,88.0,0.0,0.0,0.0,0.0,0.0,0.0,0.0,0.0,0.0,0.0,1.0,0.0,0.0,0.0,0.0,0.0,0.0,0.0,0.0,0.0,0.0,0.0,0.0,0.0,16,71.6,6.201574803149606,0.6579724409448819,0.6875,25.557837097878167,0.39687500000000003,1.0,0.6875,0.1875,0.125,3.0,5.0,11.0,56.0,32.0,446.0,2.0,0.0,0.0,0.0,0.0,0.0,0.0,0.0,,2
00-0029159,2014,veteran,WR,11.107949372493525,3.7365769707932315,41.50570781799643,24.132994230589706,324.978632088207,2.0877982191014106,0.8136930136467273,4.544351868560608,0.001234133975095357,0.3443261132135598,0.5814379635787321,13.46615463390288,0.050301472468713415,0.04674456980862778,0.004427599578371611,0.0015076167431014118,0.6265017037215531,56.86433740300353,57.49083910672508,veteran,Jermaine Kearse,WR,15.0,80.88,69.0,38.0,537.0,1.0,2.0,15.0,0.0,1.0,1.0,17.0,0.0,0.0,0.0,0.0,0.0,0.0,0.0,0.0,0.0,0.0,0.0,0.0,0.0,0.0,0.0,0.0,0.0,16,67.60000000000001,4.191304347826088,0.7832880434782609,0.875,24.566735112936346,0.5750000000000001,1.0,0.875,0.0,0.125,0.0,2.0,14.0,38.0,22.0,346.0,4.0,0.0,0.0,0.0,0.0,0.0,0.0,0.0,,2
00-0029209,2014,veteran,WR,5.083766751541788,3.226486063023907,16.4027025715139,9.869575584028517,126.69060733669794,0.71366767427423,0.2114551799819043,1.18094505685996,0.0003207155738698179,0.12731942062442372,0.6017042338601399,12.83647977140127,0.043509151687822226,0.03444044738340877,0.002731630301704163,0.0010700793845267876,0.20679772626709453,21.7512345292098,21.958032255476894,veteran,Ryan Broyles,WR,3.0,3.5,5.0,2.0,25.0,0.0,0.0,0.0,0.0,0.0,0.0,0.0,0.0,0.0,0.0,0.0,0.0,0.0,0.0,0.0,0.0,0.0,0.0,0.0,0.0,0.0,0.0,0.0,0.0,16,12.5,4.100877192982456,0.4276315789473684,0.375,26.39561943874059,0.35625,1.0,0.5,0.0,0.625,0.0,10.0,6.0,14.0,8.0,85.0,0.0,0.0,0.0,0.0,0.0,0.0,0.0,0.0,,2
00-0029262,2014,veteran,WR,14.00081679716573,5.655365253996697,79.17973284226439,44.43148326834567,608.3114265197181,4.128769295687232,1.0426972161184243,5.823305550055909,0.0015814662760614316,0.4148022899622533,0.5611471733159111,13.690999754516353,0.05214426908855882,0.09764373360219995,0.014625650520851538,0.0035325842364332775,1.7731667352080933,107.5817148330055,109.3548815682136,veteran,Rueben Randle,WR,16.0,151.8,127.0,71.0,938.0,3.0,0.0,0.0,0.0,0.0,0.0,0.0,0.0,0.0,0.0,0.0,4.5,0.0,0.0,4.5,3.0,1.0,0.0,0.0,0.0,0.0,0.0,0.0,0.0,16,116.6,6.403149606299212,0.9424212598425196,1.0,23.32101300479124,0.7937500000000001,1.0,1.0,0.0,0.0,0.0,0.0,16.0,79.0,41.0,611.0,6.0,0.0,0.0,0.0,0.0,0.0,0.0,0.0,,2
00-0029269,2014,veteran,WR,8.305156782730151,3.231534537552308,26.83840098317929,14.731173125062295,202.78221252771027,1.1617448096157443,1.0499626167931615,9.909032699580138,0.0,0.2932172021357953,0.5488841579755409,13.765516894422673,0.043286662657132845,0.03312120067390103,0.002568980270078521,0.0010244819739738305,0.3240974071309965,35.018745538683056,35.342842945814056,veteran,Travis Benjamin,WR,16.0,59.5,46.0,18.0,314.0,3.0,3.0,11.0,0.0,0.0,0.0,0.0,0.0,0.0,0.0,0.0,0.0,0.0,0.0,0.0,0.0,0.0,0.0,0.0,0.0,0.0,0.0,0.0,0.0,16,21.5,3.643975903614458,0.6468373493975903,0.5,24.673511293634498,0.51875,1.0,0.8125,0.0,0.5,0.0,8.0,8.0,13.0,5.0,105.0,0.0,1.0,45.0,0.0,0.0,0.0,0.0,0.0,,2
00-0029293,2014,veteran,WR,12.737935993178237,6.3800873444320505,81.26914422426196,49.42760314296489,645.5687345267313,4.790638371456891,2.4323961348603085,17.697392439691427,0.0,0.29568878903778767,0.6081964270051813,13.060894995443778,0.05894781367744121,0.12859519607868494,0.02325210029754759,0.004929252936422723,2.207890041422854,119.19286691879049,121.40075696021334,veteran,,,0.0,0.0,0.0,0.0,0.0,0.0,0.0,0.0,0.0,0.0,0.0,0.0,0.0,0.0,0.0,0.0,0.0,0.0,0.0,0.0,0.0,0.0,0.0,0.0,0.0,0.0,0.0,0.0,0.0,16,164.2,9.129464285714285,0.8928571428571428,1.0,24.473648186173854,0.7000000000000001,1.0,1.0,0.0,0.0,0.0,0.0,16.0,80.0,51.0,712.0,10.0,8.0,65.0,0.0,0.0,0.0,0.0,0.0,,2
00-0029311,2014,veteran,WR,9.128365441421632,2.2707857269423366,20.728561954693923,12.568194638412603,155.94140465038038,0.992938934745291,0.7804737911861642,4.358827557636229,0.0011837501443664983,0.29291553366003525,0.6063225546414025,12.407621709944827,0.047901969124319446,0.016717630355190225,0.0008855878965832993,0.0004815706867474886,0.173522500551563,27.693025582025836,27.8665480825774,veteran,Junior Hemingway,WR,11.0,16.8,21.0,12.0,108.0,0.0,0.0,0.0,0.0,0.0,0.0,0.0,0.0,0.0,0.0,0.0,0.0,0.0,0.0,0.0,0.0,0.0,0.0,0.0,0.0,0.0,0.0,0.0,0.0,16,29.0,2.4166666666666665,0.75,0.75,25.678302532511978,0.41250000000000003,1.0,0.75,0.0,0.25,0.0,4.0,12.0,19.0,13.0,125.0,2.0,0.0,0.0,0.0,0.0,0.0,0.0,0.0,,2
00-0029388,2014,veteran,WR,4.57380595163842,2.5911823409177415,11.85156521266994,6.933036210872781,86.20762106637001,0.49194581174087926,0.16140485925672354,0.9014216190339582,0.0002448038968178844,0.1352429303948141,0.5849890783591187,12.434324362993276,0.041508931766663495,0.020177826389901184,0.0011853220897332264,0.0005920594996776139,0.10583754280290135,14.860080207013342,14.965917749816242,veteran,,,0.0,0.0,0.0,0.0,0.0,0.0,0.0,0.0,0.0,0.0,0.0,0.0,0.0,0.0,0.0,0.0,0.0,0.0,0.0,0.0,0.0,0.0,0.0,0.0,0.0,0.0,0.0,0.0,0.0,16,14.6,2.134065934065934,0.3372252747252747,0.3125,25.544147843942504,0.284375,1.0,0.375,0.1875,0.5,3.0,11.0,5.0,19.0,10.0,96.0,0.0,0.0,0.0,0.0,0.0,0.0,0.0,0.0,,2
00-0029415,2014,veteran,WR,13.756929189021246,3.111588525300712,42.80590300793294,23.70070028656966,291.7769101646003,1.9059741219289719,1.3570771798029697,9.36862646434059,0.0007916153772249984,0.4029541558186708,0.5536783158663272,12.31089827037473,0.044525964598288,0.0252966242552427,0.001684975887627617,0.0007596763990322811,0.4036756384137187,52.59958991837876,53.00326555679248,veteran,Keshawn Martin,WR,14.0,10.8,12.0,6.0,78.0,0.0,0.0,0.0,0.0,0.0,0.0,0.0,0.0,0.0,0.0,0.0,0.0,0.0,0.0,0.0,0.0,0.0,0.0,0.0,0.0,0.0,0.0,0.0,0.0,16,52.300000000000004,2.6621323529411764,1.0,1.0,24.465434633812457,0.8500000000000001,1.0,1.0,0.0,0.0,0.0,0.0,16.0,40.0,22.0,253.0,2.0,0.0,0.0,0.0,0.0,0.0,0.0,0.0,,2
00-0029435,2014,veteran,WR,4.94759485542582,1.814179096163437,8.975823162999284,5.338826993914868,68.53751221391971,0.37528976511895673,0.4182284314083687,2.228963019006444,0.0003334964038266465,0.1907152736101369,0.5948008218257824,12.837560065542105,0.04181118080244722,0.011212777791802247,0.0004781758132624603,0.0003112175033478119,0.062104568245247495,11.618370042166475,11.680474610411723,veteran,Damaris Johnson,WR,16.0,56.5,49.0,31.0,331.0,1.0,5.0,19.0,0.0,0.0,0.0,0.0,0.0,0.0,0.0,0.0,0.0,0.0,0.0,0.0,0.0,0.0,0.0,0.0,0.0,0.0,0.0,0.0,0.0,16,0.40000000000000013,1.2072164948453608,0.7332474226804125,0.625,34.743326488706366,0.60625,1.0,0.875,0.0,0.375,0.0,6.0,10.0,3.0,2.0,14.0,0.0,0.0,0.0,0.0,0.0,0.0,0.0,0.0,,2
00-0029548,2014,veteran,WR,8.18024171644467,3.040728742160583,24.873896105014328,13.542407569589333,178.99376065340513,1.1563213787330004,0.45510801646371024,2.541709133945803,0.0006902655621177225,0.2289902043227906,0.5444425558591651,13.217277632032827,0.04648734455797207,0.026853482351075025,0.001849587794811283,0.0008115690836465398,0.25564075196373226,31.408840220654888,31.66448097261862,veteran,,,0.0,0.0,0.0,0.0,0.0,0.0,0.0,0.0,0.0,0.0,0.0,0.0,0.0,0.0,0.0,0.0,0.0,0.0,0.0,0.0,0.0,0.0,0.0,0.0,0.0,0.0,0.0,0.0,0.0,16,34.1,3.17953216374269,0.6414473684210525,0.5625,25.464750171115675,0.534375,1.0,0.75,0.0,0.4375,0.0,7.0,9.0,27.0,12.0,161.0,2.0,0.0,0.0,0.0,0.0,0.0,0.0,0.0,,2
00-0029572,2014,veteran,WR,11.796278964218025,4.380605341895839,51.674842645146995,30.851036044860216,427.08978936824184,2.4639259902409503,1.034631279668236,5.745283855167288,0.0010590474689782892,0.2769962198329796,0.5970223510251476,13.84361253694088,0.04768134481145533,0.0698028807112482,0.00842903323408432,0.0023832361782959973,1.0287877321113954,72.94494313136462,73.97373086347602,veteran,Jarius Wright,WR,15.0,100.9,62.0,42.0,588.0,2.0,5.0,71.0,0.0,0.0,0.0,0.0,0.0,0.0,0.0,0.0,2.0,0.0,0.0,2.0,2.0,0.0,0.0,0.0,0.0,0.0,0.0,0.0,0.0,16,74.4,5.55072463768116,0.8360507246376812,0.9375,24.76659822039699,0.646875,1.0,0.9375,0.0,0.0625,0.0,1.0,15.0,43.0,26.0,434.0,3.0,0.0,0.0,0.0,0.0,0.0,0.0,0.0,,2
00-0029580,2014,veteran,WR,11.030274679960932,4.63352385027728,51.10904080470857,30.488247977201755,371.27188698831327,2.071577236633888,0.7602243950077152,4.245737756178611,0.001153037741310473,0.2609548029143579,0.5965333627312555,12.177540909072237,0.040532500786886964,0.06090502394203207,0.006761413407876457,0.0020370326619138742,0.8286075737266069,64.71035850347255,65.53896607719915,veteran,Rishard Matthews,WR,11.0,31.8,22.0,12.0,135.0,2.0,1.0,3.0,0.0,0.0,0.0,0.0,0.0,0.0,0.0,0.0,0.0,0.0,0.0,0.0,0.0,0.0,0.0,0.0,0.0,0.0,0.0,0.0,0.0,16,78.3,5.025,0.78125,0.875,24.8870636550308,0.6125,1.0,0.875,0.0,0.125,0.0,2.0,14.0,67.0,41.0,448.0,2.0,0.0,0.0,0.0,0.0,0.0,0.0,0.0,,2
00-0029608,2014,veteran,WR,13.39385926290523,8.62618231782273,115.53787194107929,67.88499535537497,917.125120117435,5.1853018255346575,1.6507207122058372,8.592692486821694,0.0,0.3023135655400294,0.5875562204399454,13.509982807192154,0.04487967225308598,0.21339330684413693,0.05674624516823944,0.009461046129501337,4.251676592415684,157.02146276024104,161.27313935265673,veteran,T.Y. Hilton,WR,15.0,230.0,131.0,82.0,1345.0,7.0,2.0,20.0,0.0,0.0,0.0,0.0,0.0,0.0,0.0,1.0,12.5,0.0,0.0,12.5,6.0,3.0,1.0,0.0,0.0,0.0,0.0,0.0,0.0,16,186.4,11.475187969924812,0.9788533834586466,1.0,24.79671457905544,0.83125,1.0,1.0,0.0,0.0,0.0,0.0,16.0,138.0,82.0,1083.0,5.0,2.0,6.0,0.0,0.0,0.0,0.0,0.0,,2
00-0029614,2014,veteran,WR,13.429770292951819,5.620947740767294,75.48803698719125,38.545022527429154,556.8540007445285,2.6573343037305577,1.6429709765803664,7.807725842548827,0.0,0.39486585459940765,0.5106110062706948,14.446845902042572,0.03520205862793136,0.089670924163214,0.012700386413090792,0.003193219958203416,1.5458732427750523,90.89295803560684,92.4388312783819,veteran,Chris Givens,WR,9.0,27.8,20.0,11.0,159.0,1.0,1.0,4.0,0.0,0.0,0.0,0.0,0.0,0.0,0.0,0.0,0.0,0.0,0.0,0.0,0.0,0.0,0.0,0.0,0.0,0.0,0.0,0.0,0.0,16,73.7,5.5966165413533835,0.9788533834586466,1.0,24.736481861738536,0.83125,1.0,1.0,0.0,0.0,0.0,0.0,16.0,83.0,34.0,569.0,0.0,3.0,8.0,0.0,0.0,0.0,0.0,0.0,,2
00-0029632,2014,veteran,WR,12.289342868010504,5.057872583889038,62.15793036612261,37.27384530852843,424.866754173827,2.7610764966990766,2.0300478040175323,9.57136209605774,0.0,0.37405063498845204,0.5996635520033895,11.39852222535826,0.044420341546698626,0.06403694346271091,0.007330912453588233,0.0021577152210310526,0.9751439037744805,77.89909199147024,78.87423589524472,veteran,Mohamed Sanu,WR,16.0,153.26,98.0,56.0,790.0,5.0,7.0,51.0,0.0,3.0,3.0,79.0,1.0,0.0,1.0,0.0,2.0,0.0,0.0,2.0,2.0,0.0,0.0,0.0,0.0,0.0,0.0,0.0,0.0,16,81.6,5.81377358490566,0.8938679245283019,1.0,25.026694045174537,0.6625000000000001,1.0,1.0,0.0,0.0,0.0,0.0,16.0,78.0,47.0,455.0,2.0,4.0,16.0,0.0,1.0,25.0,0.0,0.0,,2
00-0029638,2014,veteran,WR,13.415067889946311,7.325251663570137,98.26874837773555,56.492020748946,786.7772407374691,4.124248385021015,1.0208977431948962,5.701558805457853,0.0015484028605928337,0.3527784323674341,0.5748727004418144,13.927227780255116,0.041969074126881147,0.1654308179996954,0.03596698658914777,0.006763507400860869,3.1244808268039805,131.54311419132048,134.66759501812447,veteran,Michael Floyd,WR,16.0,146.3,99.0,47.0,841.0,6.0,1.0,2.0,0.0,0.0,0.0,0.0,0.0,0.0,0.0,1.0,4.5,0.0,0.0,4.5,3.0,1.0,0.0,0.0,0.0,0.0,0.0,0.0,0.0,16,170.1,9.091353383458646,0.9788533834586466,1.0,24.761122518822724,0.83125,1.0,1.0,0.0,0.0,0.0,0.0,16.0,112.0,65.0,1041.0,5.0,0.0,0.0,0.0,0.0,0.0,0.0,0.0,,2
00-0029640,2014,veteran,WR,11.70974147241342,3.139095898419002,36.75800142759985,20.3854207418185,278.5347565472251,1.7216191856680836,0.8124941001025544,4.537656118550064,0.0012323155744046166,0.2692762705736106,0.5545845788697328,13.663429373122575,0.04683658302421744,0.03150680326973957,0.002375181197200893,0.0009690465462897705,0.4333502266284566,48.29850810379447,48.731858330422924,veteran,Brian Quick,WR,7.0,68.0,39.0,25.0,375.0,3.0,0.0,0.0,0.0,0.0,0.0,0.0,0.0,0.0,0.0,0.0,0.0,0.0,0.0,0.0,0.0,0.0,0.0,0.0,0.0,0.0,0.0,0.0,0.0,16,51.2,3.2008403361344535,0.875,0.875,25.240246406570844,0.7437500000000001,1.0,0.875,0.0,0.125,0.0,2.0,14.0,34.0,18.0,302.0,2.0,0.0,0.0,0.0,0.0,0.0,0.0,0.0,,2
00-0029654,2014,veteran,WR,6.512535128105327,2.91198192706304,18.964384592405892,10.719836588803291,142.0887898224941,0.7987431261944067,0.7373494402179498,3.7734432794961847,0.00048178235040059877,0.16674413650015002,0.5652615056697357,13.254753339328298,0.04211806200736173,0.02670445295632823,0.0018335822834380454,0.0008065840090383059,0.2023314048869265,24.40800278286922,24.61033418775615,veteran,A.J. Jenkins,WR,7.0,13.600000000000001,15.0,9.0,93.0,0.0,2.0,-2.0,0.0,0.0,0.0,0.0,0.0,0.0,0.0,0.0,0.0,0.0,0.0,0.0,0.0,0.0,0.0,0.0,0.0,0.0,0.0,0.0,0.0,16,17.6,2.332530120481928,0.41039156626506024,0.4375,23.813826146475016,0.259375,1.0,0.4375,0.0,0.5625,0.0,9.0,7.0,17.0,8.0,130.0,0.0,2.0,6.0,0.0,0.0,0.0,0.0,0.0,,2
00-0029660,2014,veteran,WR,13.215734652529147,4.108611416790966,54.29831827466124,28.161038263112378,366.5684573605022,2.2080108448468168,1.6048047597598456,7.910201843396582,0.0,0.38857271895921097,0.5186355518538032,13.016865853297157,0.040664442564829914,0.042241513704350066,0.0037700970734263093,0.0013449783828985637,0.6685392950864325,63.99930468310855,64.66784397819498,veteran,Trevor Graham,WR,11.0,16.2,8.0,3.0,87.0,1.0,0.0,0.0,0.0,0.0,0.0,0.0,0.0,0.0,0.0,0.0,0.0,0.0,0.0,0.0,0.0,0.0,0.0,0.0,0.0,0.0,0.0,0.0,0.0,16,59.0,3.6624060150375946,0.9788533834586466,1.0,25.097878165639973,0.83125,1.0,1.0,0.0,0.0,0.0,0.0,16.0,58.0,23.0,361.0,2.0,4.0,14.0,0.0,0.0,0.0,0.0,0.0,,2
00-0029664,2014,veteran,WR,13.193349481973502,10.906860439672522,143.89802153171075,80.50300158409486,1286.1630108155337,6.936944306109874,1.6605084879285201,15.639748048724623,0.0,0.350555313790246,0.5594448118687612,15.976584543521462,0.04820736402259139,0.3574473403555942,0.15222560911130248,0.02029938047205479,8.264109816051576,211.352331887552,219.61644170360358,veteran,Josh Gordon,WR,5.0,43.3,47.0,24.0,303.0,0.0,0.0,0.0,0.0,1.0,0.0,0.0,0.0,0.0,0.0,0.0,1.0,0.0,0.0,1.0,1.0,0.0,0.0,0.0,0.0,0.0,0.0,0.0,0.0,16,286.4,15.829600000000001,0.9230000000000002,0.875,23.38672142368241,0.78125,1.0,1.0,0.0,0.125,0.0,2.0,14.0,159.0,87.0,1646.0,9.0,5.0,88.0,0.0,0.0,0.0,0.0,0.0,,2
00-0029673,2014,veteran,WR,8.041641043298238,2.9524643007219367,23.74265809955836,13.79216125983412,172.68237133192181,0.9553052474489238,0.4673928615144574,2.3961219623435164,0.0005903040174386418,0.19678520163275595,0.5809021551841608,12.520327168361334,0.040235817044709646,0.025903354969762538,0.0017484436717641516,0.0007798509600341932,0.24193858004882932,29.745732864876253,29.98767144492508,veteran,DeVier Posey,WR,1.0,3.5,1.0,1.0,30.0,0.0,0.0,0.0,0.0,0.0,0.0,0.0,0.0,0.0,0.0,0.0,0.0,0.0,0.0,0.0,0.0,0.0,0.0,0.0,0.0,0.0,0.0,0.0,0.0,16,23.0,2.431292517006803,0.5420918367346939,0.5625,24.465434633812457,0.459375,1.0,0.5625,0.125,0.3125,2.0,7.0,9.0,25.0,15.0,155.0,0.0,0.0,0.0,0.0,0.0,0.0,0.0,0.0,,2
00-0029702,2014,veteran,WR,4.211248743359835,3.6250372907391735,15.265933735257887,8.489889793045009,105.89720202801976,0.6508565189042842,0.27699897132606555,1.546997174393197,0.00042012630789082974,0.10923076502420137,0.5561330174935146,12.473330586078003,0.042634569898667866,0.03503857237052541,0.002806630086647306,0.0010908393640137904,0.17447286180452287,18.678563157988453,18.853036019792977,veteran,,,0.0,0.0,0.0,0.0,0.0,0.0,0.0,0.0,0.0,0.0,0.0,0.0,0.0,0.0,0.0,0.0,0.0,0.0,0.0,0.0,0.0,0.0,0.0,0.0,0.0,0.0,0.0,0.0,0.0,16,4.7,3.6661538461538465,0.47788461538461535,0.0625,24.720054757015742,0.203125,1.0,0.5625,0.125,0.8125,2.0,15.0,1.0,8.0,3.0,32.0,0.0,0.0,0.0,0.0,0.0,0.0,0.0,0.0,,2
00-0029707,2014,veteran,WR,7.364599374101918,8.765627420963108,64.55533421803551,36.06928060515145,477.3496609919468,2.611391122897657,0.9180272588931543,5.079403324262535,0.0005675277252683573,0.18110004200327928,0.5587343174977226,13.234244015495316,0.04045198053003163,0.19531083014562825,0.04832935276574964,0.00840024329506927,2.0960043521662475,81.58709855392766,83.68310290609391,veteran,,,0.0,0.0,0.0,0.0,0.0,0.0,0.0,0.0,0.0,0.0,0.0,0.0,0.0,0.0,0.0,0.0,0.0,0.0,0.0,0.0,0.0,0.0,0.0,0.0,0.0,0.0,0.0,0.0,0.0,16,65.4,11.88,0.7642857142857142,0.25,24.643394934976044,0.4375,1.0,1.0,0.0,0.75,0.0,12.0,4.0,48.0,29.0,415.0,1.0,1.0,-1.0,0.0,0.0,0.0,0.0,0.0,,2
00-0029708,2014,veteran,WR,13.390599352867465,8.405795850938572,112.55864448191407,71.39884393593772,822.1500014302401,3.9651329446647074,1.0918760456202645,5.9945187535917,0.0013790086870094892,0.3521349788848417,0.6343257265097048,11.514892344306167,0.03522726275636542,0.1786310785244895,0.04119580155714162,0.007469359997356359,3.4194703292937905,141.60867574869266,145.02814607798646,veteran,Kendall Wright,WR,14.0,140.4,93.0,57.0,715.0,6.0,4.0,54.0,0.0,0.0,0.0,0.0,0.0,0.0,0.0,1.0,1.0,0.0,0.0,1.0,1.0,0.0,0.0,0.0,0.0,0.0,0.0,0.0,0.0,16,170.4,9.685714285714287,0.9788533834586466,1.0,24.802190280629706,0.83125,1.0,1.0,0.0,0.0,0.0,0.0,16.0,140.0,94.0,1079.0,2.0,0.0,0.0,0.0,0.0,0.0,0.0,0.0,,2
00-0029778,2014,veteran,WR,8.958915617515718,4.244696696371521,38.02787952474019,21.42538103060497,259.16606897873294,1.5900870128036941,0.6584977969997049,3.677610160160294,0.0009987482873431818,0.2917896614401079,0.5634124568177944,12.0962175005676,0.041813717532401845,0.045754820312012834,0.004279512070648168,0.001471627528172109,0.49379162924814685,45.95999367285781,46.45378530210596,veteran,,,0.0,0.0,0.0,0.0,0.0,0.0,0.0,0.0,0.0,0.0,0.0,0.0,0.0,0.0,0.0,0.0,0.0,0.0,0.0,0.0,0.0,0.0,0.0,0.0,0.0,0.0,0.0,0.0,0.0,16,36.0,3.6,0.625,0.625,23.523613963039015,0.34375,1.0,0.625,0.0625,0.3125,1.0,6.0,10.0,43.0,22.0,210.0,1.0,0.0,0.0,0.0,0.0,0.0,0.0,0.0,,2
00-0030000,2014,veteran,WR,8.162305924317437,5.932238514302996,48.42074556975941,25.900900366988658,345.7514108560369,2.2581334662341486,0.648910642459552,3.624067358491803,0.0009842073819352989,0.2034112908092658,0.53491329103294,13.349011268222384,0.04663566080329912,0.09323845869657843,0.013546927317808143,0.00334405454888964,0.9814924639582586,61.03588146502516,62.017373928983424,veteran,Kenbrell Thompkins,WR,13.0,37.2,47.0,21.0,262.0,0.0,2.0,5.0,0.0,0.0,0.0,0.0,0.0,0.0,0.0,0.0,0.0,0.0,0.0,0.0,0.0,0.0,0.0,0.0,0.0,0.0,0.0,0.0,0.0,16,87.6,7.963636363636363,0.6875,0.6875,26.091718001368925,0.37812500000000004,1.0,0.6875,0.0,0.3125,0.0,5.0,11.0,69.0,32.0,466.0,4.0,0.0,0.0,0.0,0.0,0.0,0.0,0.0,,2
00-0030043,2014,veteran,WR,4.769565730472934,6.796476347794557,32.416240676410766,19.222102079370288,250.47602521089289,1.5337434272530226,0.46645358091215433,2.3580572917541347,0.000495629795823956,0.12561658333254125,0.5929775223244247,13.030626108250198,0.04731404367839373,0.13685644131594762,0.02586848710157991,0.0053238961223127336,0.8886033118585001,43.848660465577844,44.73726377743635,veteran,,,0.0,0.0,0.0,0.0,0.0,0.0,0.0,0.0,0.0,0.0,0.0,0.0,0.0,0.0,0.0,0.0,0.0,0.0,0.0,0.0,0.0,0.0,0.0,0.0,0.0,0.0,0.0,0.0,0.0,16,39.2,9.8,0.25,0.25,23.20602327173169,0.1375,1.0,0.25,0.0,0.75,0.0,12.0,4.0,23.0,14.0,192.0,2.0,1.0,0.0,0.0,0.0,0.0,0.0,0.0,,2
00-0030068,2014,veteran,WR,10.259703176682123,3.9351701829275223,40.373678026566274,23.1390200377172,314.58960872383784,1.9747122454931747,1.4957566286310553,7.845913780602947,0.0004231173780074703,0.3292184619991918,0.5731214288302269,13.595632321984624,0.04891088308064959,0.05109143134303752,0.005101507271445054,0.0016672673137090273,0.6369041814991439,55.005437522531395,55.642341704030535,veteran,Marquise Goodwin,WR,8.0,5.5,9.0,1.0,42.0,0.0,3.0,8.0,0.0,0.0,0.0,0.0,0.0,0.0,0.0,0.0,0.0,0.0,0.0,0.0,0.0,0.0,0.0,0.0,0.0,0.0,0.0,0.0,0.0,16,54.1,4.508333333333334,0.75,0.75,23.783709787816566,0.41250000000000003,1.0,0.75,0.25,0.0,4.0,4.0,12.0,32.0,17.0,283.0,3.0,3.0,13.0,0.0,0.0,0.0,0.0,0.0,,2
00-0030085,2014,veteran,WR,14.098868412767654,5.339218022271845,75.27693232308829,45.777579546748626,687.2524986961612,3.903231079569723,2.1812758770231957,10.945198356190408,0.0006170360285427504,0.3381523239670754,0.6081222777553081,15.01286231165478,0.051851622523843975,0.1200464498743848,0.020684974703094574,0.00453070961381146,2.257726962212575,115.45534352426493,117.7130704864775,veteran,Kenny Stills,WR,15.0,145.9,84.0,63.0,931.0,3.0,1.0,-2.0,0.0,0.0,0.0,0.0,0.0,0.0,0.0,0.0,3.5,0.0,0.0,3.5,2.0,1.0,0.0,0.0,0.0,0.0,0.0,0.0,0.0,16,112.1,7.00625,1.0,1.0,22.360027378507873,0.55,1.0,1.0,0.0,0.0,0.0,0.0,16.0,50.0,32.0,641.0,5.0,3.0,10.0,0.0,0.0,0.0,0.0,0.0,,2
00-0030279,2014,veteran,WR,13.376164849652032,9.200882629245427,123.07252281108666,78.74197245576377,1076.4490520525874,6.403948445097817,1.3843885444846946,7.731599710740893,0.002099711941515013,0.5164703265316483,0.6398014004850684,13.670587851445081,0.05203394144221552,0.27355441657437474,0.09018234843414628,0.013420790752109129,5.827587329250864,185.1923996933874,191.01998702263825,veteran,Keenan Allen,WR,14.0,139.8,121.0,77.0,783.0,4.0,0.0,0.0,0.0,0.0,0.0,0.0,0.0,0.0,0.0,2.0,3.0,0.0,0.0,3.0,3.0,0.0,0.0,0.0,0.0,0.0,0.0,0.0,0.0,16,189.1,12.606666666666666,0.9375,0.9375,22.34633812457221,0.515625,1.0,0.9375,0.0,0.0625,0.0,1.0,15.0,104.0,71.0,1046.0,8.0,0.0,0.0,0.0,0.0,0.0,0.0,0.0,,2
00-0030300,2014,veteran,WR,9.733015640262408,2.3618041600530626,22.98747682903328,13.619831170498834,175.54510732585214,1.035700897183547,0.8321712868724492,4.647550217388438,0.0012621601033851338,0.24068544109117931,0.5924891745098761,12.888934167267118,0.04505500559658868,0.018546482882465545,0.0010400380594963099,0.0005396683086724009,0.20620246819393967,30.56958880111271,30.77579126930665,veteran,Jaron Brown,WR,14.0,45.9,32.0,22.0,229.0,2.0,0.0,0.0,0.0,0.0,0.0,0.0,0.0,0.0,0.0,0.0,0.0,0.0,0.0,0.0,0.0,0.0,0.0,0.0,0.0,0.0,0.0,0.0,0.0,16,25.5,2.125,0.75,0.75,24.646132785763175,0.41250000000000003,1.0,0.75,0.0,0.25,0.0,4.0,12.0,18.0,11.0,140.0,1.0,0.0,0.0,0.0,0.0,0.0,0.0,0.0,,2
00-0030400,2014,veteran,WR,11.98777797827264,6.820072666566866,81.75751692248943,48.28716817494976,575.6268043870683,4.282611746277602,1.3752778672259505,6.702334646180942,0.0014613001516709816,0.2919250848794923,0.5906144167848031,11.920906239552268,0.05238187150837458,0.11688088726626225,0.01977031477762165,0.004385634223119319,1.861793361344839,107.49708609961644,109.35887946096128,veteran,Marlon Brown,WR,13.0,37.5,31.0,24.0,255.0,0.0,0.0,0.0,0.0,0.0,0.0,0.0,0.0,0.0,0.0,0.0,0.0,0.0,0.0,0.0,0.0,0.0,0.0,0.0,0.0,0.0,0.0,0.0,0.0,16,120.7,8.621428571428572,0.875,0.875,23.362080766598222,0.48125000000000007,1.0,0.875,0.0,0.125,0.0,2.0,14.0,83.0,49.0,524.0,7.0,1.0,-2.0,0.0,0.0,0.0,0.0,0.0,,2
00-0030431,2014,veteran,WR,12.613749079578156,6.923633760961381,87.33297897966287,46.511436888997885,625.6257263050519,3.690993560046278,1.6643708401718447,9.894412962403289,0.0010874959029997923,0.3071686660679265,0.5325758657543211,13.451008357323863,0.04226345652202927,0.12379400788914215,0.021792859758386896,0.004704200960545322,2.092516271219509,108.34588137480428,110.43839764602379,veteran,Robert Woods,WR,16.0,133.4,104.0,65.0,699.0,5.0,0.0,0.0,0.0,0.0,0.0,0.0,0.0,0.0,0.0,1.0,1.0,0.0,0.0,1.0,1.0,0.0,0.0,0.0,0.0,0.0,0.0,0.0,0.0,16,100.3,7.164285714285714,0.875,0.875,22.392881587953458,0.48125000000000007,1.0,0.875,0.125,0.0,2.0,2.0,14.0,85.0,40.0,587.0,3.0,2.0,16.0,0.0,0.0,0.0,0.0,0.0,,2
00-0030474,2014,veteran,WR,6.158195872384205,3.5834845275810503,22.067799626502286,12.514424876400875,162.43182093758804,0.9252732246853764,0.3048687432742958,1.702645616871142,0.00046239658901973154,0.1596148656180539,0.5670898362413849,12.97956738258859,0.041928658060415375,0.038382384322426716,0.003240176136556647,0.001207878945600062,0.281173409945812,27.905843090056624,28.187016500002436,veteran,,,0.0,0.0,0.0,0.0,0.0,0.0,0.0,0.0,0.0,0.0,0.0,0.0,0.0,0.0,0.0,0.0,0.0,0.0,0.0,0.0,0.0,0.0,0.0,0.0,0.0,0.0,0.0,0.0,0.0,16,16.6,2.766666666666667,0.375,0.375,23.32375085557837,0.20625000000000002,1.0,0.375,0.125,0.5,2.0,10.0,6.0,19.0,9.0,121.0,0.0,0.0,0.0,0.0,0.0,0.0,0.0,0.0,,2
00-0030516,2014,veteran,WR,6.840585337538915,2.5980748914076495,17.772353007991175,10.278595070375104,131.15760555650735,0.7498075729078104,0.4207238108091906,2.3496785688622888,0.0006381147931013721,0.17451684527177708,0.578347451558802,12.760265839689405,0.042189549834547306,0.02085003404657354,0.0012471966013051924,0.0006137974433588068,0.16382123694457137,22.643666383386435,22.807487620331006,veteran,Brice Butler,WR,14.0,56.5,36.0,21.0,280.0,2.0,0.0,0.0,0.0,0.0,0.0,0.0,0.0,0.0,0.0,0.0,0.0,0.0,0.0,0.0,0.0,0.0,0.0,0.0,0.0,0.0,0.0,0.0,0.0,16,14.8,1.85,0.5,0.5,24.588637919233403,0.275,1.0,0.5,0.0,0.5,0.0,8.0,8.0,17.0,9.0,103.0,0.0,0.0,0.0,0.0,0.0,0.0,0.0,0.0,,2
